177.27	0.000
177.66	0.000
178.05	-0.299
178.43	0.381
178.82	0.000
179.21	1.424
179.59	0.000
179.98	0.000
180.36	0.000
180.75	0.000
181.14	0.000
181.52	0.631
181.91	0.000
182.29	0.000
182.68	0.000
183.07	-0.671
183.45	-0.456
183.84	0.184
184.22	0.000
184.61	0.000
185.00	0.000
185.38	0.184
185.77	0.000
186.15	-0.236
186.54	0.252
186.93	-0.344
187.31	-0.183
187.70	0.000
188.08	0.000
188.47	0.064
188.85	0.086
189.24	0.237
189.62	0.058
190.01	-0.039
190.39	0.302
190.78	-0.120
191.17	0.000
191.55	0.000
191.94	0.147
192.32	-0.320
192.71	0.000
193.09	0.454
193.48	-0.697
193.86	-0.138
194.25	-1.300
194.63	0.000
195.02	0.000
195.40	0.000
195.79	0.000
196.17	-0.327
196.56	0.301
196.94	0.294
197.33	0.049
197.71	0.136
198.10	-0.096
198.48	-0.316
198.87	0.000
199.25	-0.256
199.63	0.416
200.02	0.000
200.40	0.197
200.79	0.000
201.17	0.376
201.56	0.000
201.94	-0.248
202.33	0.026
202.71	-0.385
203.09	0.000
203.48	0.000
203.86	-0.344
204.25	-0.097
204.63	0.000
205.02	0.416
205.40	0.064
205.78	-0.014
206.17	0.012
206.55	0.376
206.94	0.345
207.32	0.000
207.70	0.000
208.09	0.000
208.47	0.000
208.86	-0.299
209.24	0.000
209.62	0.000
210.01	-0.059
210.39	0.133
210.77	-0.316
211.16	-0.097
211.54	-0.071
211.92	-0.813
212.31	0.288
212.69	-0.301
213.07	-0.228
213.46	-0.430
213.84	0.037
214.23	-0.039
214.61	-0.671
214.99	0.097
215.37	-0.071
215.76	-0.096
216.14	0.026
216.52	-1.229
216.91	0.064
217.29	-0.385
217.67	0.296
218.06	-0.439
218.44	0.000
218.82	-0.215
219.21	-0.200
219.59	-0.544
219.97	0.243
220.35	0.097
220.74	0.037
221.12	-0.299
221.50	-0.828
221.88	0.042
222.27	0.026
222.65	0.211
223.03	-0.071
223.42	-0.544
223.80	-0.376
224.18	0.147
224.56	0.000
224.94	-0.230
225.33	-0.690
225.71	0.302
226.09	0.108
226.47	0.058
226.86	0.704
227.24	0.147
227.62	0.064
228.00	-0.697
228.38	0.136
228.77	0.000
229.15	0.766
229.53	0.301
229.91	0.505
230.29	-0.032
230.68	0.704
231.06	-0.439
231.44	0.237
231.82	0.000
232.20	-0.344
232.59	-0.026
232.97	-0.550
233.35	0.580
233.73	0.017
234.11	-0.057
234.49	-0.944
234.87	-0.230
235.26	0.000
235.64	0.238
236.02	0.136
236.40	-0.439
236.78	-0.071
237.16	0.700
237.54	0.296
237.93	-0.196
238.31	0.435
238.69	0.000
239.07	-0.179
239.45	0.168
239.83	0.000
240.21	0.000
240.59	-0.236
240.97	-0.301
241.35	-0.320
241.74	-0.462
242.12	0.544
242.50	-0.032
242.88	0.000
243.26	-0.136
243.64	-0.320
244.02	-0.097
244.40	0.000
244.78	0.495
245.16	0.294
245.54	-0.032
245.92	0.000
246.30	0.211
246.68	0.000
247.06	-1.300
247.44	-0.671
247.82	-0.439
248.20	0.821
248.59	0.376
248.97	0.223
249.35	-0.146
249.73	0.358
250.11	0.197
250.49	0.000
250.87	0.211
251.25	0.000
251.63	-0.097
252.01	-0.093
252.39	0.000
252.77	0.017
253.15	0.000
253.52	0.037
253.90	0.580
254.28	0.000
254.66	0.036
255.04	-0.059
255.42	0.000
255.80	0.000
256.18	-0.570
256.56	-0.795
256.94	0.544
257.32	-0.200
257.70	0.211
258.08	0.017
258.46	-0.072
258.84	0.435
259.22	-0.032
259.60	0.000
259.98	0.168
260.35	0.358
260.73	0.077
261.11	0.115
261.49	-0.041
261.87	0.243
262.25	-0.230
262.63	1.478
263.01	-0.439
263.39	0.000
263.77	-0.439
264.14	0.000
264.52	-1.040
264.90	-0.186
265.28	0.000
265.66	-0.071
266.04	0.000
266.42	0.020
266.79	0.302
267.17	-0.550
267.55	-1.040
267.93	0.000
268.31	-0.230
268.69	-0.179
269.06	-0.088
269.44	0.048
269.82	0.146
270.20	-0.186
270.58	0.000
270.96	0.243
271.33	-0.072
271.71	0.108
272.09	0.211
272.47	-0.437
272.85	-0.019
273.22	0.000
273.60	0.000
273.98	0.000
274.36	-0.083
274.73	0.254
275.11	0.000
275.49	-0.059
275.87	-0.385
276.25	-0.123
276.62	-1.145
277.00	0.037
277.38	-0.187
277.76	0.704
278.13	0.133
278.51	0.000
278.89	0.000
279.26	0.243
279.64	0.301
280.02	0.000
280.40	0.000
280.77	0.223
281.15	0.302
281.53	0.000
281.90	-0.026
282.28	0.026
282.66	0.112
283.04	-1.035
283.41	0.000
283.79	0.945
284.17	0.000
284.54	0.000
284.92	0.077
285.30	0.026
285.67	0.217
286.05	-0.071
286.43	0.000
286.80	-0.320
287.18	-0.032
287.56	0.000
287.93	-0.258
288.31	0.178
288.69	0.000
289.06	0.037
289.44	0.546
289.81	0.435
290.19	0.029
290.57	0.115
290.94	-0.300
291.32	0.000
291.70	0.000
292.07	0.089
292.45	-0.157
292.82	-0.089
293.20	0.000
293.58	0.026
293.95	0.133
294.33	-0.123
294.70	-0.813
295.08	0.722
295.45	0.000
295.83	-0.550
296.21	0.211
296.58	0.000
296.96	-0.697
297.33	0.000
297.71	0.905
298.08	0.012
298.46	0.000
298.83	0.012
299.21	-0.041
299.58	0.064
299.96	0.197
300.34	0.000
300.71	0.644
301.09	-0.044
301.46	-1.040
301.84	-0.236
302.21	-0.301
302.59	0.000
302.96	0.112
303.34	0.000
303.71	-0.697
304.09	0.000
304.46	0.133
304.84	0.017
305.21	-0.097
305.58	0.152
305.96	0.000
306.33	0.243
306.71	-0.116
307.08	-0.327
307.46	0.097
307.83	0.206
308.21	0.000
308.58	0.152
308.96	0.000
309.33	0.000
309.70	-0.032
310.08	0.000
310.45	0.163
310.83	0.012
311.20	0.546
311.57	0.178
311.95	0.000
312.32	-0.120
312.70	-0.022
313.07	0.142
313.44	0.112
313.82	0.000
314.19	-0.022
314.57	0.152
314.94	0.416
315.31	1.202
315.69	0.073
316.06	0.179
316.43	0.814
316.81	0.017
317.18	-0.187
317.55	-0.828
317.93	-0.340
318.30	0.619
318.68	-0.734
319.05	-0.311
319.42	0.000
319.79	0.131
320.17	0.042
320.54	0.766
320.91	-0.017
321.29	-0.210
321.66	-0.301
322.03	0.180
322.41	0.000
322.78	0.000
323.15	-1.040
323.53	-0.228
323.90	0.077
324.27	0.704
324.64	-0.136
325.02	0.704
325.39	0.042
325.76	0.296
326.13	-0.012
326.51	0.108
326.88	0.112
327.25	-0.146
327.62	0.163
328.00	1.424
328.37	0.231
328.74	-0.089
329.11	0.301
329.49	-0.273
329.86	-0.146
330.23	0.129
330.60	0.133
330.97	-0.039
331.35	0.077
331.72	-0.075
332.09	0.097
332.46	-0.103
332.83	0.112
333.21	0.009
333.58	0.629
333.95	-0.146
334.32	-0.202
334.69	0.012
335.06	0.097
335.44	0.206
335.81	0.301
336.18	0.009
336.55	0.097
336.92	0.516
337.29	-0.015
337.67	0.101
338.04	0.231
338.41	-0.025
338.78	0.128
339.15	0.138
339.52	0.219
339.89	0.129
340.26	-0.012
340.63	0.084
341.01	0.022
341.38	0.144
341.75	0.050
342.12	0.188
342.49	0.362
342.86	0.374
343.23	0.078
343.60	0.101
343.97	0.219
344.34	0.205
344.71	0.039
345.08	0.168
345.46	0.163
345.83	0.045
346.20	0.226
346.57	0.093
346.94	0.326
347.31	0.275
347.68	0.103
348.05	0.062
348.42	0.142
348.79	0.006
349.16	0.097
349.53	0.197
349.90	0.173
350.27	0.153
350.64	-0.010
351.01	0.072
351.38	0.091
351.75	0.104
352.12	-0.115
352.49	0.159
352.86	0.134
353.23	0.052
353.60	0.231
353.97	0.019
354.34	-0.108
354.71	0.184
355.08	0.202
355.44	0.127
355.81	0.097
356.18	-0.044
356.55	0.097
356.92	0.272
357.29	0.122
357.66	0.164
358.03	0.198
358.40	0.107
358.77	0.122
359.14	0.286
359.51	0.187
359.88	0.118
360.24	0.209
360.61	0.031
360.98	0.062
361.35	0.202
361.72	0.140
362.09	0.187
362.46	0.087
362.83	0.147
363.19	0.130
363.56	0.151
363.93	0.129
364.30	0.169
364.67	0.082
365.04	0.163
365.41	0.069
365.77	0.098
366.14	0.042
366.51	0.148
366.88	0.066
367.25	0.159
367.61	0.178
367.98	0.220
368.35	0.095
368.72	0.123
369.09	0.099
369.45	0.180
369.82	0.149
370.19	0.143
370.56	0.192
370.93	0.145
371.29	0.153
371.66	0.228
372.03	0.090
372.40	0.158
372.76	0.124
373.13	0.099
373.50	0.114
373.87	0.096
374.23	0.097
374.60	0.126
374.97	0.098
375.34	0.110
375.70	0.140
376.07	0.187
376.44	0.187
376.80	0.125
377.17	0.110
377.54	0.104
377.91	0.163
378.27	0.138
378.64	0.069
379.01	0.114
379.37	0.147
379.74	0.162
380.11	0.135
380.47	0.118
380.84	0.113
381.21	0.155
381.57	0.141
381.94	0.178
382.31	0.097
382.67	0.117
383.04	0.108
383.41	0.105
383.77	0.147
384.14	0.138
384.50	0.105
384.87	0.143
385.24	0.125
385.60	0.168
385.97	0.120
386.34	0.126
386.70	0.115
387.07	0.150
387.43	0.133
387.80	0.148
388.16	0.117
388.53	0.108
388.90	0.131
389.26	0.095
389.63	0.130
389.99	0.127
390.36	0.122
390.72	0.166
391.09	0.143
391.46	0.116
391.82	0.109
392.19	0.137
392.55	0.122
392.92	0.142
393.28	0.131
393.65	0.122
394.01	0.135
394.38	0.157
394.74	0.128
395.11	0.102
395.47	0.127
395.84	0.144
396.20	0.147
396.57	0.141
396.93	0.133
397.30	0.138
397.66	0.120
398.03	0.120
398.39	0.113
398.76	0.139
399.12	0.130
399.48	0.134
399.85	0.136
400.21	0.123
400.58	0.134
400.94	0.116
401.31	0.130
401.67	0.116
402.04	0.138
402.40	0.142
402.76	0.114
403.13	0.129
403.49	0.132
403.86	0.132
404.22	0.120
404.58	0.120
404.95	0.136
405.31	0.125
405.68	0.123
406.04	0.129
406.40	0.129
406.77	0.131
407.13	0.125
407.49	0.116
407.86	0.127
408.22	0.139
408.58	0.124
408.95	0.118
409.31	0.135
409.67	0.128
410.04	0.140
410.40	0.133
410.76	0.123
411.13	0.133
411.49	0.125
411.85	0.125
412.22	0.127
412.58	0.130
412.94	0.119
413.31	0.133
413.67	0.134
414.03	0.118
414.39	0.125
414.76	0.131
415.12	0.145
415.48	0.125
415.84	0.119
416.21	0.123
416.57	0.118
416.93	0.117
417.29	0.122
417.66	0.138
418.02	0.132
418.38	0.139
418.74	0.125
419.11	0.121
419.47	0.105
419.83	0.142
420.19	0.126
420.55	0.110
420.92	0.142
421.28	0.124
421.64	0.125
422.00	0.137
422.36	0.119
422.73	0.122
423.09	0.126
423.45	0.131
423.81	0.114
424.17	0.119
424.53	0.124
424.90	0.116
425.26	0.106
425.62	0.127
425.98	0.132
426.34	0.133
426.70	0.119
427.06	0.108
427.43	0.123
427.79	0.129
428.15	0.111
428.51	0.127
428.87	0.123
429.23	0.127
429.59	0.126
429.95	0.124
430.31	0.112
430.67	0.112
431.03	0.123
431.40	0.119
431.76	0.120
432.12	0.124
432.48	0.112
432.84	0.114
433.20	0.134
433.56	0.109
433.92	0.121
434.28	0.108
434.64	0.108
435.00	0.120
435.36	0.115
435.72	0.126
436.08	0.130
436.44	0.126
436.80	0.127
437.16	0.124
437.52	0.126
437.88	0.129
438.24	0.120
438.60	0.121
438.96	0.116
439.32	0.131
439.68	0.134
440.04	0.118
440.40	0.121
440.76	0.109
441.12	0.115
441.48	0.120
441.84	0.117
442.20	0.105
442.56	0.116
442.92	0.113
443.28	0.126
443.63	0.122
443.99	0.117
444.35	0.122
444.71	0.108
445.07	0.121
445.43	0.114
445.79	0.107
446.15	0.109
446.51	0.113
446.87	0.115
447.22	0.114
447.58	0.128
447.94	0.126
448.30	0.109
448.66	0.111
449.02	0.113
449.38	0.117
449.74	0.119
450.09	0.128
450.45	0.121
450.81	0.121
451.17	0.118
451.53	0.116
451.89	0.121
452.24	0.121
452.60	0.110
452.96	0.109
453.32	0.107
453.68	0.117
454.03	0.112
454.39	0.121
454.75	0.106
455.11	0.121
455.46	0.114
455.82	0.122
456.18	0.120
456.54	0.123
456.90	0.119
457.25	0.123
457.61	0.113
457.97	0.113
458.33	0.105
458.68	0.121
459.04	0.125
459.40	0.126
459.75	0.115
460.11	0.108
460.47	0.119
460.83	0.113
461.18	0.126
461.54	0.113
461.90	0.123
462.25	0.117
462.61	0.121
462.97	0.117
463.32	0.119
463.68	0.112
464.04	0.108
464.39	0.114
464.75	0.116
465.11	0.120
465.46	0.118
465.82	0.117
466.18	0.116
466.53	0.116
466.89	0.108
467.25	0.115
467.60	0.126
467.96	0.122
468.31	0.110
468.67	0.114
469.03	0.107
469.38	0.107
469.74	0.112
470.09	0.119
470.45	0.109
470.81	0.117
471.16	0.105
471.52	0.112
471.87	0.114
472.23	0.118
472.59	0.111
472.94	0.123
473.30	0.110
473.65	0.116
474.01	0.117
474.36	0.111
474.72	0.119
475.07	0.117
475.43	0.120
475.78	0.115
476.14	0.109
476.49	0.108
476.85	0.110
477.20	0.113
477.56	0.120
477.91	0.114
478.27	0.115
478.62	0.117
478.98	0.112
479.33	0.125
479.69	0.108
480.04	0.112
480.40	0.110
480.75	0.120
481.11	0.117
481.46	0.108
481.81	0.121
482.17	0.119
482.52	0.111
482.88	0.115
483.23	0.112
483.59	0.119
483.94	0.109
484.29	0.114
484.65	0.120
485.00	0.112
485.36	0.113
485.71	0.109
486.06	0.110
486.42	0.113
486.77	0.109
487.13	0.115
487.48	0.115
487.83	0.122
488.19	0.116
488.54	0.117
488.89	0.116
489.25	0.114
489.60	0.108
489.95	0.113
490.31	0.112
490.66	0.113
491.01	0.123
491.37	0.116
491.72	0.115
492.07	0.112
492.43	0.112
492.78	0.115
493.13	0.119
493.48	0.116
493.84	0.109
494.19	0.113
494.54	0.115
494.89	0.113
495.25	0.109
495.60	0.117
495.95	0.112
496.31	0.111
496.66	0.106
497.01	0.109
497.36	0.114
497.71	0.113
498.07	0.116
498.42	0.111
498.77	0.113
499.12	0.111
499.48	0.110
499.83	0.115
500.18	0.107
500.53	0.103
500.88	0.111
501.24	0.122
501.59	0.121
501.94	0.118
502.29	0.105
502.64	0.112
502.99	0.112
503.35	0.103
503.70	0.104
504.05	0.104
504.40	0.107
504.75	0.116
505.10	0.107
505.45	0.107
505.80	0.114
506.16	0.116
506.51	0.109
506.86	0.112
507.21	0.110
507.56	0.112
507.91	0.107
508.26	0.110
508.61	0.107
508.96	0.100
509.31	0.110
509.67	0.107
510.02	0.111
510.37	0.109
510.72	0.109
511.07	0.105
511.42	0.106
511.77	0.112
512.12	0.112
512.47	0.107
512.82	0.106
513.17	0.110
513.52	0.107
513.87	0.106
514.22	0.104
514.57	0.103
514.92	0.110
515.27	0.107
515.62	0.102
515.97	0.102
516.32	0.104
516.67	0.106
517.02	0.103
517.37	0.109
517.72	0.104
518.07	0.107
518.42	0.105
518.77	0.100
519.12	0.103
519.47	0.107
519.82	0.107
520.16	0.105
520.51	0.104
520.86	0.103
521.21	0.107
521.56	0.104
521.91	0.105
522.26	0.098
522.61	0.103
522.96	0.111
523.31	0.105
523.65	0.105
524.00	0.104
524.35	0.106
524.70	0.104
525.05	0.101
525.40	0.102
525.75	0.108
526.09	0.107
526.44	0.105
526.79	0.104
527.14	0.105
527.49	0.103
527.84	0.107
528.18	0.100
528.53	0.104
528.88	0.105
529.23	0.099
529.58	0.104
529.92	0.103
530.27	0.103
530.62	0.105
530.97	0.103
531.32	0.100
531.66	0.102
532.01	0.102
532.36	0.105
532.71	0.105
533.05	0.105
533.40	0.106
533.75	0.102
534.10	0.105
534.44	0.105
534.79	0.098
535.14	0.108
535.48	0.100
535.83	0.104
536.18	0.104
536.53	0.104
536.87	0.100
537.22	0.103
537.57	0.102
537.91	0.099
538.26	0.100
538.61	0.102
538.95	0.101
539.30	0.102
539.65	0.100
539.99	0.097
540.34	0.105
540.69	0.097
541.03	0.096
541.38	0.101
541.73	0.104
542.07	0.100
542.42	0.105
542.76	0.101
543.11	0.104
543.46	0.098
543.80	0.103
544.15	0.100
544.49	0.099
544.84	0.099
545.18	0.100
545.53	0.098
545.88	0.103
546.22	0.102
546.57	0.100
546.91	0.103
547.26	0.096
547.60	0.100
547.95	0.096
548.29	0.099
548.64	0.098
548.99	0.096
549.33	0.098
549.68	0.096
550.02	0.093
550.37	0.096
550.71	0.095
551.06	0.093
551.40	0.095
551.75	0.096
552.09	0.092
552.43	0.095
552.78	0.091
553.12	0.100
553.47	0.093
553.81	0.094
554.16	0.093
554.50	0.100
554.85	0.097
555.19	0.095
555.54	0.098
555.88	0.097
556.22	0.092
556.57	0.092
556.91	0.096
557.26	0.093
557.60	0.092
557.94	0.084
558.29	0.096
558.63	0.096
558.98	0.092
559.32	0.096
559.66	0.097
560.01	0.092
560.35	0.095
560.69	0.091
561.04	0.086
561.38	0.093
561.72	0.091
562.07	0.090
562.41	0.091
562.75	0.087
563.10	0.089
563.44	0.086
563.78	0.089
564.13	0.088
564.47	0.090
564.81	0.090
565.16	0.091
565.50	0.088
565.84	0.092
566.18	0.090
566.53	0.090
566.87	0.086
567.21	0.095
567.55	0.090
567.90	0.090
568.24	0.088
568.58	0.087
568.92	0.088
569.27	0.088
569.61	0.091
569.95	0.092
570.29	0.087
570.63	0.094
570.98	0.092
571.32	0.087
571.66	0.089
572.00	0.091
572.34	0.085
572.69	0.091
573.03	0.092
573.37	0.089
573.71	0.086
574.05	0.085
574.39	0.087
574.74	0.088
575.08	0.085
575.42	0.090
575.76	0.087
576.10	0.086
576.44	0.089
576.78	0.091
577.12	0.085
577.47	0.085
577.81	0.090
578.15	0.089
578.49	0.091
578.83	0.085
579.17	0.086
579.51	0.086
579.85	0.092
580.19	0.088
580.53	0.089
580.87	0.088
581.21	0.085
581.55	0.084
581.89	0.083
582.24	0.083
582.58	0.090
582.92	0.087
583.26	0.085
583.60	0.087
583.94	0.090
584.28	0.083
584.62	0.086
584.96	0.087
585.30	0.086
585.64	0.088
585.98	0.085
586.32	0.081
586.66	0.086
586.99	0.088
587.33	0.094
587.67	0.090
588.01	0.079
588.35	0.086
588.69	0.086
589.03	0.090
589.37	0.082
589.71	0.086
590.05	0.089
590.39	0.089
590.73	0.091
591.07	0.078
591.41	0.083
591.74	0.086
592.08	0.085
592.42	0.087
592.76	0.086
593.10	0.086
593.44	0.083
593.78	0.087
594.12	0.082
594.45	0.079
594.79	0.083
595.13	0.079
595.47	0.082
595.81	0.082
596.15	0.083
596.48	0.081
596.82	0.084
597.16	0.085
597.50	0.085
597.84	0.084
598.17	0.082
598.51	0.083
598.85	0.087
599.19	0.079
599.53	0.080
599.86	0.081
600.20	0.084
600.54	0.084
600.88	0.089
601.21	0.080
601.55	0.078
601.89	0.083
602.23	0.082
602.56	0.086
602.90	0.086
603.24	0.080
603.57	0.083
603.91	0.078
604.25	0.085
604.58	0.082
604.92	0.087
605.26	0.083
605.60	0.083
605.93	0.074
606.27	0.080
606.61	0.079
606.94	0.077
607.28	0.077
607.61	0.083
607.95	0.077
608.29	0.082
608.62	0.080
608.96	0.081
609.30	0.076
609.63	0.068
609.97	0.074
610.30	0.075
610.64	0.076
610.98	0.073
611.31	0.070
611.65	0.067
611.98	0.071
612.32	0.069
612.66	0.068
612.99	0.071
613.33	0.070
613.66	0.069
614.00	0.071
614.33	0.067
614.67	0.065
615.00	0.069
615.34	0.072
615.67	0.069
616.01	0.066
616.34	0.071
616.68	0.070
617.01	0.069
617.35	0.072
617.68	0.066
618.02	0.070
618.35	0.068
618.69	0.066
619.02	0.071
619.36	0.075
619.69	0.072
620.03	0.076
620.36	0.075
620.70	0.073
621.03	0.077
621.37	0.076
621.70	0.079
622.03	0.075
622.37	0.077
622.70	0.077
623.04	0.079
623.37	0.074
623.70	0.077
624.04	0.076
624.37	0.074
624.71	0.082
625.04	0.078
625.37	0.085
625.71	0.076
626.04	0.075
626.37	0.080
626.71	0.078
627.04	0.080
627.37	0.076
627.71	0.079
628.04	0.079
628.37	0.078
628.71	0.077
629.04	0.078
629.37	0.078
629.71	0.077
630.04	0.082
630.37	0.083
630.70	0.076
631.04	0.075
631.37	0.077
631.70	0.079
632.04	0.076
632.37	0.082
632.70	0.078
633.03	0.076
633.37	0.080
633.70	0.075
634.03	0.080
634.36	0.075
634.69	0.075
635.03	0.079
635.36	0.071
635.69	0.071
636.02	0.079
636.35	0.076
636.69	0.080
637.02	0.081
637.35	0.075
637.68	0.077
638.01	0.078
638.34	0.079
638.68	0.071
639.01	0.072
639.34	0.077
639.67	0.074
640.00	0.078
640.33	0.076
640.66	0.080
641.00	0.077
641.33	0.074
641.66	0.075
641.99	0.077
642.32	0.075
642.65	0.075
642.98	0.075
643.31	0.075
643.64	0.074
643.97	0.072
644.30	0.075
644.63	0.072
644.96	0.075
645.30	0.073
645.63	0.073
645.96	0.077
646.29	0.079
646.62	0.074
646.95	0.072
647.28	0.069
647.61	0.075
647.94	0.074
648.27	0.076
648.60	0.072
648.93	0.074
649.26	0.077
649.59	0.074
649.92	0.072
650.25	0.077
650.58	0.070
650.90	0.076
651.23	0.075
651.56	0.083
651.89	0.077
652.22	0.072
652.55	0.078
652.88	0.078
653.21	0.084
653.54	0.072
653.87	0.075
654.20	0.073
654.53	0.075
654.85	0.073
655.18	0.076
655.51	0.071
655.84	0.080
656.17	0.077
656.50	0.072
656.83	0.071
657.16	0.077
657.48	0.079
657.81	0.073
658.14	0.074
658.47	0.080
658.80	0.075
659.12	0.073
659.45	0.070
659.78	0.073
660.11	0.073
660.44	0.077
660.76	0.074
661.09	0.072
661.42	0.071
661.75	0.073
662.08	0.075
662.40	0.069
662.73	0.074
663.06	0.069
663.39	0.074
663.71	0.073
664.04	0.078
664.37	0.076
664.70	0.071
665.02	0.073
665.35	0.072
665.68	0.076
666.00	0.070
666.33	0.071
666.66	0.064
666.98	0.075
667.31	0.073
667.64	0.071
667.96	0.075
668.29	0.077
668.62	0.073
668.94	0.074
669.27	0.074
669.60	0.071
669.92	0.071
670.25	0.076
670.58	0.076
670.90	0.076
671.23	0.073
671.55	0.073
671.88	0.075
672.21	0.072
672.53	0.074
672.86	0.078
673.18	0.069
673.51	0.073
673.83	0.071
674.16	0.073
674.49	0.073
674.81	0.075
675.14	0.077
675.46	0.076
675.79	0.068
676.11	0.072
676.44	0.068
676.76	0.069
677.09	0.074
677.41	0.069
677.74	0.067
678.06	0.069
678.39	0.066
678.71	0.067
679.04	0.065
679.36	0.071
679.69	0.069
680.01	0.071
680.34	0.070
680.66	0.068
680.99	0.072
681.31	0.071
681.63	0.073
681.96	0.072
682.28	0.078
682.61	0.072
682.93	0.075
683.25	0.070
683.58	0.072
683.90	0.073
684.23	0.073
684.55	0.074
684.87	0.076
685.20	0.069
685.52	0.076
685.84	0.068
686.17	0.073
686.49	0.067
686.82	0.075
687.14	0.073
687.46	0.074
687.79	0.071
688.11	0.068
688.43	0.072
688.75	0.072
689.08	0.077
689.40	0.074
689.72	0.075
690.05	0.075
690.37	0.075
690.69	0.076
691.01	0.075
691.34	0.076
691.66	0.073
691.98	0.074
692.30	0.079
692.63	0.074
692.95	0.074
693.27	0.073
693.59	0.071
693.92	0.075
694.24	0.078
694.56	0.078
694.88	0.071
695.20	0.073
695.53	0.067
695.85	0.077
696.17	0.074
696.49	0.076
696.81	0.076
697.13	0.077
697.46	0.067
697.78	0.070
698.10	0.074
698.42	0.076
698.74	0.074
699.06	0.074
699.38	0.072
699.71	0.073
700.03	0.080
700.35	0.075
700.67	0.073
700.99	0.075
701.31	0.077
701.63	0.070
701.95	0.071
702.27	0.073
702.59	0.074
702.91	0.078
703.23	0.070
703.55	0.079
703.87	0.067
704.20	0.078
704.52	0.082
704.84	0.068
705.16	0.072
705.48	0.071
705.80	0.080
706.12	0.074
706.44	0.077
706.76	0.070
707.08	0.072
707.40	0.069
707.72	0.066
708.03	0.077
708.35	0.075
708.67	0.070
708.99	0.074
709.31	0.072
709.63	0.074
709.95	0.071
710.27	0.075
710.59	0.077
710.91	0.078
711.23	0.067
711.55	0.073
711.87	0.072
712.19	0.068
712.50	0.073
712.82	0.068
713.14	0.071
713.46	0.073
713.78	0.075
714.10	0.069
714.42	0.069
714.73	0.071
715.05	0.074
715.37	0.068
715.69	0.074
716.01	0.078
716.33	0.078
716.64	0.070
716.96	0.071
717.28	0.072
717.60	0.062
717.92	0.074
718.23	0.076
718.55	0.070
718.87	0.071
719.19	0.073
719.50	0.074
719.82	0.077
720.14	0.074
720.46	0.072
720.77	0.076
721.09	0.075
721.41	0.082
721.73	0.074
722.04	0.077
722.36	0.074
722.68	0.069
722.99	0.075
723.31	0.066
723.63	0.073
723.94	0.077
724.26	0.074
724.58	0.077
724.89	0.078
725.21	0.076
725.53	0.077
725.84	0.070
726.16	0.073
726.48	0.068
726.79	0.071
727.11	0.075
727.42	0.074
727.74	0.073
728.06	0.070
728.37	0.072
728.69	0.071
729.00	0.069
729.32	0.072
729.64	0.069
729.95	0.065
730.27	0.075
730.58	0.075
730.90	0.077
731.21	0.073
731.53	0.074
731.84	0.073
732.16	0.077
732.47	0.067
732.79	0.069
733.10	0.076
733.42	0.069
733.73	0.066
734.05	0.076
734.36	0.080
734.68	0.079
734.99	0.073
735.31	0.072
735.62	0.081
735.94	0.078
736.25	0.086
736.57	0.063
736.88	0.066
737.19	0.081
737.51	0.067
737.82	0.076
738.14	0.068
738.45	0.072
738.76	0.075
739.08	0.070
739.39	0.069
739.71	0.070
740.02	0.075
740.33	0.062
740.65	0.071
740.96	0.072
741.27	0.068
741.59	0.074
741.90	0.070
742.21	0.071
742.53	0.072
742.84	0.068
743.15	0.065
743.47	0.056
743.78	0.066
744.09	0.069
744.41	0.066
744.72	0.065
745.03	0.074
745.34	0.071
745.66	0.073
745.97	0.076
746.28	0.073
746.59	0.070
746.91	0.065
747.22	0.068
747.53	0.065
747.84	0.067
748.16	0.068
748.47	0.068
748.78	0.074
749.09	0.081
749.40	0.078
749.72	0.066
750.03	0.074
750.34	0.071
750.65	0.070
750.96	0.071
751.28	0.076
751.59	0.073
751.90	0.074
752.21	0.073
752.52	0.071
752.83	0.074
753.14	0.067
753.45	0.073
753.77	0.078
754.08	0.080
754.39	0.077
754.70	0.067
755.01	0.072
755.32	0.066
755.63	0.077
755.94	0.069
756.25	0.068
756.56	0.066
756.87	0.070
757.18	0.064
757.49	0.064
757.80	0.074
758.12	0.066
758.43	0.070
758.74	0.067
759.05	0.070
759.36	0.057
759.67	0.057
759.98	0.067
760.29	0.064
760.60	0.076
760.90	0.066
761.21	0.064
761.52	0.063
761.83	0.066
762.14	0.070
762.45	0.059
762.76	0.062
763.07	0.066
763.38	0.066
763.69	0.069
764.00	0.069
764.31	0.065
764.62	0.080
764.93	0.067
765.23	0.062
765.54	0.067
765.85	0.062
766.16	0.073
766.47	0.066
766.78	0.077
767.09	0.071
767.40	0.064
767.70	0.067
768.01	0.074
768.32	0.063
768.63	0.065
768.94	0.067
769.24	0.073
769.55	0.065
769.86	0.071
770.17	0.065
770.48	0.071
770.78	0.074
771.09	0.079
771.40	0.079
771.71	0.071
772.01	0.065
772.32	0.067
772.63	0.065
772.94	0.067
773.24	0.072
773.55	0.067
773.86	0.071
774.17	0.072
774.47	0.069
774.78	0.062
775.09	0.068
775.39	0.078
775.70	0.070
776.01	0.072
776.31	0.072
776.62	0.075
776.93	0.071
777.23	0.068
777.54	0.055
777.85	0.069
778.15	0.065
778.46	0.075
778.77	0.078
779.07	0.061
779.38	0.059
779.68	0.072
779.99	0.070
780.30	0.077
780.60	0.065
780.91	0.072
781.21	0.072
781.52	0.067
781.82	0.058
782.13	0.061
782.43	0.059
782.74	0.065
783.05	0.071
783.35	0.081
783.66	0.060
783.96	0.070
784.27	0.074
784.57	0.071
784.88	0.054
785.18	0.068
785.49	0.062
785.79	0.071
786.10	0.057
786.40	0.068
786.70	0.055
787.01	0.054
787.31	0.061
787.62	0.067
787.92	0.054
788.23	0.058
788.53	0.065
788.84	0.067
789.14	0.064
789.44	0.069
789.75	0.072
790.05	0.070
790.36	0.071
790.66	0.069
790.96	0.065
791.27	0.056
791.57	0.065
791.87	0.060
792.18	0.071
792.48	0.068
792.78	0.074
793.09	0.075
793.39	0.059
793.69	0.064
794.00	0.070
794.30	0.064
794.60	0.065
794.91	0.069
795.21	0.062
795.51	0.061
795.81	0.059
796.12	0.068
796.42	0.071
796.72	0.057
797.02	0.054
797.33	0.063
797.63	0.063
797.93	0.073
798.23	0.071
798.54	0.059
798.84	0.055
799.14	0.077
799.44	0.069
799.74	0.076
800.05	0.076
800.35	0.068
800.65	0.047
800.95	0.064
801.25	0.067
801.55	0.057
801.86	0.064
802.16	0.066
802.46	0.067
802.76	0.053
803.06	0.061
803.36	0.063
803.66	0.058
803.96	0.074
804.26	0.055
804.57	0.064
804.87	0.064
805.17	0.063
805.47	0.057
805.77	0.050
806.07	0.061
806.37	0.073
806.67	0.071
806.97	0.062
807.27	0.063
807.57	0.061
807.87	0.064
808.17	0.066
808.47	0.076
808.77	0.063
809.07	0.062
809.37	0.058
809.67	0.077
809.97	0.065
810.27	0.059
810.57	0.069
810.87	0.066
811.17	0.068
811.47	0.085
811.77	0.052
812.07	0.063
812.37	0.063
812.67	0.062
812.97	0.074
813.26	0.068
813.56	0.052
813.86	0.076
814.16	0.061
814.46	0.063
814.76	0.080
815.06	0.055
815.36	0.071
815.66	0.073
815.95	0.053
816.25	0.061
816.55	0.060
816.85	0.061
817.15	0.058
817.45	0.063
817.74	0.067
818.04	0.068
818.34	0.062
818.64	0.053
818.94	0.055
819.23	0.058
819.53	0.063
819.83	0.069
820.13	0.069
820.42	0.074
820.72	0.051
821.02	0.060
821.32	0.070
821.61	0.059
821.91	0.056
822.21	0.072
822.50	0.071
822.80	0.066
823.10	0.057
823.40	0.069
823.69	0.052
823.99	0.044
824.29	0.064
824.58	0.069
824.88	0.054
825.18	0.071
825.47	0.068
825.77	0.053
826.06	0.062
826.36	0.077
826.66	0.056
826.95	0.064
827.25	0.067
827.55	0.065
827.84	0.050
828.14	0.068
828.43	0.059
828.73	0.065
829.02	0.079
829.32	0.076
829.62	0.069
829.91	0.097
830.21	0.081
830.50	0.072
830.80	0.066
831.09	0.069
831.39	0.073
831.68	0.071
831.98	0.069
832.27	0.068
832.57	0.061
832.86	0.084
833.16	0.067
833.45	0.071
833.75	0.067
834.04	0.063
834.34	0.065
834.63	0.048
834.93	0.067
835.22	0.045
835.51	0.041
835.81	0.070
836.10	0.071
836.40	0.051
836.69	0.044
836.98	0.059
837.28	0.072
837.57	0.045
837.87	0.063
838.16	0.056
838.45	0.067
838.75	0.070
839.04	0.068
839.33	0.054
839.63	0.065
839.92	0.061
840.21	0.068
840.51	0.064
840.80	0.067
841.09	0.063
841.39	0.064
841.68	0.073
841.97	0.062
842.26	0.062
842.56	0.064
842.85	0.069
843.14	0.060
843.43	0.061
843.73	0.073
844.02	0.074
844.31	0.057
844.60	0.057
844.90	0.069
845.19	0.061
845.48	0.074
845.77	0.048
846.06	0.051
846.36	0.068
846.65	0.061
846.94	0.065
847.23	0.066
847.52	0.057
847.81	0.053
848.11	0.049
848.40	0.064
848.69	0.061
848.98	0.081
849.27	0.044
849.56	0.072
849.85	0.089
850.14	0.066
850.44	0.069
850.73	0.061
851.02	0.077
851.31	0.063
851.60	0.063
851.89	0.062
852.18	0.061
852.47	0.070
852.76	0.060
853.05	0.058
853.34	0.051
853.63	0.057
853.92	0.082
854.21	0.050
854.50	0.059
854.79	0.056
855.08	0.063
855.37	0.039
855.66	0.061
855.95	0.039
856.24	0.057
856.53	0.077
856.82	0.061
857.11	0.066
857.40	0.047
857.69	0.081
857.98	0.056
858.27	0.082
858.56	0.058
858.84	0.058
859.13	0.049
859.42	0.081
859.71	0.057
860.00	0.058
860.29	0.065
860.58	0.082
860.87	0.085
861.15	0.066
861.44	0.081
861.73	0.075
862.02	0.035
862.31	0.063
862.60	0.055
862.88	0.070
863.17	0.068
863.46	0.071
863.75	0.074
864.04	0.080
864.32	0.066
864.61	0.070
864.90	0.060
865.19	0.096
865.47	0.082
865.76	0.067
866.05	0.068
866.34	0.068
866.62	0.078
866.91	0.055
867.20	0.046
867.49	0.043
867.77	0.064
868.06	0.089
868.35	0.067
868.63	0.056
868.92	0.079
869.21	0.084
869.49	0.082
869.78	0.075
870.07	0.074
870.35	0.058
870.64	0.056
870.92	0.074
871.21	0.036
871.50	0.046
871.78	0.036
872.07	0.042
872.35	0.060
872.64	0.065
872.93	0.065
873.21	0.075
873.50	0.071
873.78	0.041
874.07	0.077
874.35	0.058
874.64	0.059
874.93	0.063
875.21	0.080
875.50	0.060
875.78	0.065
876.07	0.080
876.35	0.072
876.64	0.110
>>>>>End Spectral Data<<<<<
