177.27	0.000
177.66	0.000
178.05	-1.262
178.43	0.327
178.82	-0.246
179.21	-0.005
179.59	1.312
179.98	0.000
180.36	0.000
180.75	0.000
181.14	0.000
181.52	0.000
181.91	0.000
182.29	0.000
182.68	0.000
183.07	-0.077
183.45	0.043
183.84	0.000
184.22	0.000
184.61	0.000
185.00	0.000
185.38	-0.012
185.77	0.000
186.15	-0.016
186.54	0.212
186.93	-0.027
187.31	-0.203
187.70	0.000
188.08	0.000
188.47	-0.027
188.85	0.477
189.24	0.000
189.62	0.018
190.01	0.049
190.39	1.467
190.78	0.000
191.17	0.000
191.55	0.000
191.94	0.000
192.32	0.130
192.71	0.476
193.09	-0.068
193.48	-0.969
193.86	1.109
194.25	-1.090
194.63	0.000
195.02	0.000
195.40	0.000
195.79	-0.489
196.17	-0.423
196.56	-0.094
196.94	0.887
197.33	0.093
197.71	0.240
198.10	-0.200
198.48	-0.095
198.87	0.000
199.25	0.000
199.63	0.144
200.02	0.000
200.40	0.079
200.79	0.000
201.17	0.015
201.56	0.000
201.94	-0.409
202.33	-0.276
202.71	-0.484
203.09	-0.511
203.48	0.000
203.86	-0.574
204.25	0.113
204.63	0.000
205.02	-0.072
205.40	0.000
205.78	0.162
206.17	0.056
206.55	0.187
206.94	0.097
207.32	0.000
207.70	-0.027
208.09	0.000
208.47	0.000
208.86	0.000
209.24	0.000
209.62	0.000
210.01	0.078
210.39	0.093
210.77	-0.009
211.16	0.018
211.54	0.000
211.92	-0.489
212.31	0.000
212.69	0.043
213.07	0.540
213.46	-0.149
213.84	-0.351
214.23	0.039
214.61	0.000
214.99	0.198
215.37	-0.095
215.76	0.000
216.14	0.130
216.52	0.468
216.91	0.000
217.29	0.321
217.67	0.000
218.06	-0.489
218.44	0.000
218.82	-0.039
219.21	0.400
219.59	-0.584
219.97	0.056
220.35	0.476
220.74	-0.423
221.12	0.468
221.50	-0.973
221.88	-0.094
222.27	-0.276
222.65	-0.149
223.03	0.240
223.42	0.000
223.80	0.777
224.18	0.321
224.56	0.000
224.94	1.467
225.33	-0.852
225.71	-0.091
226.09	0.540
226.47	0.234
226.86	-0.006
227.24	0.043
227.62	0.000
228.00	-0.523
228.38	-0.166
228.77	0.000
229.15	0.320
229.53	0.356
229.91	0.466
230.29	-0.149
230.68	1.047
231.06	-0.368
231.44	0.000
231.82	0.000
232.20	-0.707
232.59	0.018
232.97	-0.240
233.35	-0.108
233.73	0.185
234.11	-0.341
234.49	-0.973
234.87	-0.186
235.26	0.000
235.64	0.187
236.02	-0.166
236.40	-0.489
236.78	-0.095
237.16	-0.091
237.54	1.047
237.93	0.321
238.31	0.130
238.69	-0.368
239.07	0.185
239.45	0.012
239.83	-0.059
240.21	0.000
240.59	0.631
240.97	0.000
241.35	0.000
241.74	0.030
242.12	-0.166
242.50	0.312
242.88	0.000
243.26	0.187
243.64	-0.119
244.02	-0.125
244.40	0.000
244.78	0.428
245.16	-0.095
245.54	0.312
245.92	0.000
246.30	0.312
246.68	0.407
247.06	-0.969
247.44	-0.724
247.82	-0.584
248.20	0.268
248.59	0.093
248.97	0.000
249.35	0.198
249.73	0.320
250.11	0.251
250.49	-0.646
250.87	-0.072
251.25	0.453
251.63	-0.278
252.01	0.675
252.39	0.000
252.77	-0.007
253.15	0.000
253.52	-0.158
253.90	0.755
254.28	0.000
254.66	0.874
255.04	0.185
255.42	0.000
255.80	0.000
256.18	-0.341
256.56	0.407
256.94	0.061
257.32	-0.006
257.70	-0.149
258.08	0.327
258.46	0.013
258.84	-0.119
259.22	0.023
259.60	0.000
259.98	0.428
260.35	0.213
260.73	0.228
261.11	0.097
261.49	-0.091
261.87	1.109
262.25	-0.263
262.63	-0.053
263.01	-0.584
263.39	0.000
263.77	0.078
264.14	-0.077
264.52	-0.801
264.90	-0.027
265.28	0.000
265.66	0.453
266.04	0.000
266.42	-0.009
266.79	1.467
267.17	-0.761
267.55	-1.328
267.93	0.000
268.31	0.476
268.69	-0.140
269.06	0.009
269.44	0.313
269.82	0.184
270.20	-0.646
270.58	0.000
270.96	0.213
271.33	0.251
271.71	0.000
272.09	-0.072
272.47	0.240
272.85	0.251
273.22	0.000
273.60	0.000
273.98	0.000
274.36	-0.050
274.73	0.159
275.11	0.000
275.49	0.185
275.87	-0.341
276.25	-0.079
276.62	-0.969
277.00	-0.016
277.38	0.144
277.76	-0.006
278.13	0.093
278.51	0.000
278.89	0.000
279.26	-0.059
279.64	0.018
280.02	0.000
280.40	0.000
280.77	0.185
281.15	0.030
281.53	0.000
281.90	-0.059
282.28	-0.012
282.66	-0.140
283.04	-0.511
283.41	-0.125
283.79	-0.423
284.17	0.000
284.54	0.000
284.92	0.306
285.30	0.000
285.67	0.118
286.05	-0.009
286.43	0.000
286.80	-0.119
287.18	0.023
287.56	0.000
287.93	-0.278
288.31	0.072
288.69	0.000
289.06	0.000
289.44	-0.341
289.81	0.130
290.19	0.162
290.57	0.159
290.94	0.078
291.32	0.000
291.70	0.000
292.07	-0.213
292.45	0.018
292.82	-0.337
293.20	0.030
293.58	-0.521
293.95	0.015
294.33	0.327
294.70	-0.584
295.08	-0.382
295.45	0.023
295.83	0.000
296.21	0.144
296.58	0.777
296.96	-0.969
297.33	0.000
297.71	0.000
298.08	-0.005
298.46	0.000
298.83	0.213
299.21	0.000
299.58	0.407
299.96	0.013
300.34	0.000
300.71	0.000
301.09	0.128
301.46	-0.969
301.84	0.196
302.21	-0.091
302.59	0.000
302.96	-0.181
303.34	-1.059
303.71	-0.523
304.09	-0.012
304.46	-0.203
304.84	-0.007
305.21	0.680
305.58	0.128
305.96	0.000
306.33	-0.059
306.71	-0.272
307.08	-0.265
307.46	0.000
307.83	0.729
308.21	0.476
308.58	0.320
308.96	0.000
309.33	0.000
309.70	0.144
310.08	0.000
310.45	0.000
310.83	-0.107
311.20	0.043
311.57	0.217
311.95	0.321
312.32	0.196
312.70	0.093
313.07	0.399
313.44	0.079
313.82	-0.079
314.19	0.187
314.57	1.109
314.94	0.312
315.31	0.000
315.69	-0.215
316.06	0.230
316.43	0.144
316.81	-0.242
317.18	-0.072
317.55	-0.973
317.93	-0.125
318.30	0.423
318.68	-0.341
319.05	-0.169
319.42	0.000
319.79	0.517
320.17	0.372
320.54	0.213
320.91	-0.039
321.29	0.098
321.66	0.043
322.03	0.065
322.41	-0.044
322.78	-0.007
323.15	-0.969
323.53	-0.079
323.90	0.105
324.27	0.065
324.64	0.093
325.02	0.065
325.39	-0.094
325.76	-0.068
326.13	0.009
326.51	-0.194
326.88	0.251
327.25	0.453
327.62	0.234
328.00	0.675
328.37	0.268
328.74	0.000
329.11	0.202
329.49	-0.007
329.86	-0.263
330.23	0.115
330.60	-0.050
330.97	0.182
331.35	0.400
331.72	0.423
332.09	0.165
332.46	-0.172
332.83	-0.044
333.21	0.159
333.58	0.049
333.95	-0.009
334.32	0.251
334.69	-0.107
335.06	0.114
335.44	0.110
335.81	0.477
336.18	0.159
336.55	0.339
336.92	0.213
337.29	0.061
337.67	0.090
338.04	0.095
338.41	0.066
338.78	0.304
339.15	0.256
339.52	0.151
339.89	0.115
340.26	0.095
340.63	0.072
341.01	0.120
341.38	0.103
341.75	0.276
342.12	0.179
342.49	0.181
342.86	0.163
343.23	0.304
343.60	-0.003
343.97	0.111
344.34	0.153
344.71	0.137
345.08	0.132
345.46	0.211
345.83	0.060
346.20	0.122
346.57	-0.104
346.94	0.217
347.31	0.363
347.68	0.121
348.05	-0.052
348.42	0.190
348.79	0.061
349.16	0.084
349.53	0.159
349.90	0.218
350.27	0.218
350.64	-0.023
351.01	0.049
351.38	0.137
351.75	0.016
352.12	-0.023
352.49	0.079
352.86	0.122
353.23	0.101
353.60	0.149
353.97	0.141
354.34	0.045
354.71	0.306
355.08	0.189
355.44	0.075
355.81	0.087
356.18	0.032
356.55	0.088
356.92	0.076
357.29	0.151
357.66	0.198
358.03	0.208
358.40	0.183
358.77	0.132
359.14	0.074
359.51	0.123
359.88	0.224
360.24	0.184
360.61	0.056
360.98	0.042
361.35	0.167
361.72	0.210
362.09	0.153
362.46	0.178
362.83	0.053
363.19	0.199
363.56	0.177
363.93	0.124
364.30	0.079
364.67	0.127
365.04	0.072
365.41	0.087
365.77	0.140
366.14	0.099
366.51	0.145
366.88	0.132
367.25	0.156
367.61	0.163
367.98	0.154
368.35	0.119
368.72	0.091
369.09	0.112
369.45	0.139
369.82	0.194
370.19	0.180
370.56	0.177
370.93	0.123
371.29	0.208
371.66	0.206
372.03	0.095
372.40	0.138
372.76	0.120
373.13	0.135
373.50	0.134
373.87	0.131
374.23	0.116
374.60	0.167
374.97	0.155
375.34	0.129
375.70	0.115
376.07	0.162
376.44	0.130
376.80	0.163
377.17	0.165
377.54	0.146
377.91	0.221
378.27	0.118
378.64	0.130
379.01	0.146
379.37	0.144
379.74	0.132
380.11	0.144
380.47	0.169
380.84	0.152
381.21	0.159
381.57	0.163
381.94	0.160
382.31	0.135
382.67	0.149
383.04	0.120
383.41	0.130
383.77	0.163
384.14	0.145
384.50	0.104
384.87	0.163
385.24	0.144
385.60	0.184
385.97	0.141
386.34	0.129
386.70	0.140
387.07	0.157
387.43	0.135
387.80	0.154
388.16	0.108
388.53	0.135
388.90	0.133
389.26	0.131
389.63	0.161
389.99	0.142
390.36	0.151
390.72	0.165
391.09	0.162
391.46	0.141
391.82	0.129
392.19	0.133
392.55	0.130
392.92	0.141
393.28	0.173
393.65	0.150
394.01	0.145
394.38	0.121
394.74	0.149
395.11	0.122
395.47	0.145
395.84	0.152
396.20	0.167
396.57	0.135
396.93	0.142
397.30	0.165
397.66	0.112
398.03	0.140
398.39	0.143
398.76	0.146
399.12	0.145
399.48	0.138
399.85	0.143
400.21	0.128
400.58	0.150
400.94	0.159
401.31	0.145
401.67	0.136
402.04	0.156
402.40	0.156
402.76	0.127
403.13	0.137
403.49	0.123
403.86	0.148
404.22	0.138
404.58	0.129
404.95	0.147
405.31	0.156
405.68	0.129
406.04	0.160
406.40	0.136
406.77	0.135
407.13	0.135
407.49	0.124
407.86	0.136
408.22	0.146
408.58	0.138
408.95	0.139
409.31	0.143
409.67	0.125
410.04	0.140
410.40	0.143
410.76	0.128
411.13	0.147
411.49	0.150
411.85	0.126
412.22	0.125
412.58	0.159
412.94	0.143
413.31	0.147
413.67	0.138
414.03	0.151
414.39	0.140
414.76	0.149
415.12	0.154
415.48	0.146
415.84	0.156
416.21	0.147
416.57	0.123
416.93	0.128
417.29	0.142
417.66	0.130
418.02	0.152
418.38	0.139
418.74	0.135
419.11	0.140
419.47	0.135
419.83	0.147
420.19	0.155
420.55	0.132
420.92	0.146
421.28	0.149
421.64	0.129
422.00	0.156
422.36	0.139
422.73	0.138
423.09	0.137
423.45	0.148
423.81	0.135
424.17	0.139
424.53	0.138
424.90	0.137
425.26	0.122
425.62	0.134
425.98	0.152
426.34	0.159
426.70	0.134
427.06	0.133
427.43	0.131
427.79	0.145
428.15	0.138
428.51	0.129
428.87	0.143
429.23	0.142
429.59	0.141
429.95	0.144
430.31	0.138
430.67	0.127
431.03	0.130
431.40	0.134
431.76	0.131
432.12	0.128
432.48	0.134
432.84	0.130
433.20	0.150
433.56	0.134
433.92	0.137
434.28	0.121
434.64	0.129
435.00	0.134
435.36	0.122
435.72	0.139
436.08	0.135
436.44	0.149
436.80	0.137
437.16	0.132
437.52	0.139
437.88	0.140
438.24	0.138
438.60	0.130
438.96	0.136
439.32	0.143
439.68	0.133
440.04	0.133
440.40	0.128
440.76	0.130
441.12	0.131
441.48	0.139
441.84	0.141
442.20	0.132
442.56	0.139
442.92	0.125
443.28	0.139
443.63	0.135
443.99	0.139
444.35	0.132
444.71	0.129
445.07	0.134
445.43	0.140
445.79	0.127
446.15	0.130
446.51	0.132
446.87	0.126
447.22	0.137
447.58	0.142
447.94	0.129
448.30	0.126
448.66	0.127
449.02	0.135
449.38	0.132
449.74	0.129
450.09	0.136
450.45	0.129
450.81	0.129
451.17	0.136
451.53	0.126
451.89	0.135
452.24	0.129
452.60	0.127
452.96	0.131
453.32	0.135
453.68	0.135
454.03	0.133
454.39	0.134
454.75	0.125
455.11	0.128
455.46	0.129
455.82	0.134
456.18	0.125
456.54	0.130
456.90	0.136
457.25	0.132
457.61	0.129
457.97	0.129
458.33	0.138
458.68	0.127
459.04	0.131
459.40	0.130
459.75	0.133
460.11	0.127
460.47	0.137
460.83	0.135
461.18	0.136
461.54	0.130
461.90	0.134
462.25	0.131
462.61	0.134
462.97	0.133
463.32	0.131
463.68	0.136
464.04	0.123
464.39	0.125
464.75	0.126
465.11	0.132
465.46	0.133
465.82	0.137
466.18	0.134
466.53	0.134
466.89	0.142
467.25	0.146
467.60	0.139
467.96	0.137
468.31	0.119
468.67	0.131
469.03	0.130
469.38	0.127
469.74	0.127
470.09	0.136
470.45	0.132
470.81	0.132
471.16	0.121
471.52	0.134
471.87	0.129
472.23	0.137
472.59	0.134
472.94	0.132
473.30	0.125
473.65	0.132
474.01	0.139
474.36	0.125
474.72	0.133
475.07	0.136
475.43	0.140
475.78	0.130
476.14	0.129
476.49	0.129
476.85	0.129
477.20	0.129
477.56	0.127
477.91	0.135
478.27	0.127
478.62	0.138
478.98	0.129
479.33	0.137
479.69	0.127
480.04	0.127
480.40	0.129
480.75	0.132
481.11	0.138
481.46	0.122
481.81	0.136
482.17	0.133
482.52	0.131
482.88	0.131
483.23	0.133
483.59	0.135
483.94	0.133
484.29	0.126
484.65	0.133
485.00	0.133
485.36	0.132
485.71	0.126
486.06	0.129
486.42	0.131
486.77	0.132
487.13	0.128
487.48	0.135
487.83	0.143
488.19	0.129
488.54	0.138
488.89	0.139
489.25	0.134
489.60	0.133
489.95	0.132
490.31	0.130
490.66	0.138
491.01	0.139
491.37	0.136
491.72	0.137
492.07	0.135
492.43	0.129
492.78	0.130
493.13	0.132
493.48	0.126
493.84	0.139
494.19	0.129
494.54	0.127
494.89	0.129
495.25	0.123
495.60	0.130
495.95	0.132
496.31	0.130
496.66	0.126
497.01	0.133
497.36	0.133
497.71	0.130
498.07	0.137
498.42	0.135
498.77	0.126
499.12	0.135
499.48	0.133
499.83	0.137
500.18	0.139
500.53	0.130
500.88	0.128
501.24	0.138
501.59	0.140
501.94	0.136
502.29	0.132
502.64	0.134
502.99	0.136
503.35	0.124
503.70	0.130
504.05	0.126
504.40	0.128
504.75	0.131
505.10	0.130
505.45	0.136
505.80	0.127
506.16	0.133
506.51	0.134
506.86	0.131
507.21	0.132
507.56	0.131
507.91	0.129
508.26	0.135
508.61	0.133
508.96	0.120
509.31	0.133
509.67	0.131
510.02	0.122
510.37	0.127
510.72	0.123
511.07	0.129
511.42	0.128
511.77	0.132
512.12	0.132
512.47	0.125
512.82	0.126
513.17	0.131
513.52	0.129
513.87	0.125
514.22	0.127
514.57	0.122
514.92	0.128
515.27	0.132
515.62	0.127
515.97	0.122
516.32	0.125
516.67	0.126
517.02	0.122
517.37	0.128
517.72	0.124
518.07	0.124
518.42	0.122
518.77	0.124
519.12	0.121
519.47	0.126
519.82	0.126
520.16	0.123
520.51	0.121
520.86	0.118
521.21	0.126
521.56	0.120
521.91	0.122
522.26	0.121
522.61	0.120
522.96	0.125
523.31	0.119
523.65	0.125
524.00	0.121
524.35	0.125
524.70	0.122
525.05	0.120
525.40	0.120
525.75	0.125
526.09	0.127
526.44	0.118
526.79	0.123
527.14	0.123
527.49	0.121
527.84	0.125
528.18	0.120
528.53	0.119
528.88	0.122
529.23	0.123
529.58	0.122
529.92	0.119
530.27	0.116
530.62	0.122
530.97	0.125
531.32	0.119
531.66	0.121
532.01	0.120
532.36	0.125
532.71	0.122
533.05	0.127
533.40	0.119
533.75	0.126
534.10	0.122
534.44	0.119
534.79	0.119
535.14	0.123
535.48	0.119
535.83	0.120
536.18	0.121
536.53	0.124
536.87	0.121
537.22	0.119
537.57	0.119
537.91	0.114
538.26	0.118
538.61	0.127
538.95	0.119
539.30	0.118
539.65	0.114
539.99	0.114
540.34	0.121
540.69	0.116
541.03	0.126
541.38	0.118
541.73	0.121
542.07	0.117
542.42	0.117
542.76	0.121
543.11	0.116
543.46	0.114
543.80	0.119
544.15	0.117
544.49	0.118
544.84	0.117
545.18	0.110
545.53	0.111
545.88	0.120
546.22	0.120
546.57	0.120
546.91	0.120
547.26	0.118
547.60	0.117
547.95	0.117
548.29	0.117
548.64	0.118
548.99	0.113
549.33	0.111
549.68	0.113
550.02	0.110
550.37	0.118
550.71	0.110
551.06	0.108
551.40	0.117
551.75	0.114
552.09	0.116
552.43	0.112
552.78	0.111
553.12	0.115
553.47	0.113
553.81	0.111
554.16	0.119
554.50	0.114
554.85	0.115
555.19	0.112
555.54	0.110
555.88	0.111
556.22	0.111
556.57	0.110
556.91	0.115
557.26	0.108
557.60	0.106
557.94	0.104
558.29	0.117
558.63	0.107
558.98	0.108
559.32	0.104
559.66	0.108
560.01	0.112
560.35	0.108
560.69	0.107
561.04	0.108
561.38	0.112
561.72	0.106
562.07	0.109
562.41	0.108
562.75	0.106
563.10	0.106
563.44	0.108
563.78	0.108
564.13	0.106
564.47	0.108
564.81	0.103
565.16	0.107
565.50	0.108
565.84	0.110
566.18	0.107
566.53	0.107
566.87	0.104
567.21	0.108
567.55	0.111
567.90	0.106
568.24	0.108
568.58	0.101
568.92	0.107
569.27	0.105
569.61	0.102
569.95	0.109
570.29	0.106
570.63	0.105
570.98	0.104
571.32	0.108
571.66	0.100
572.00	0.106
572.34	0.102
572.69	0.110
573.03	0.109
573.37	0.104
573.71	0.108
574.05	0.105
574.39	0.109
574.74	0.102
575.08	0.107
575.42	0.107
575.76	0.104
576.10	0.101
576.44	0.109
576.78	0.109
577.12	0.108
577.47	0.106
577.81	0.103
578.15	0.104
578.49	0.105
578.83	0.105
579.17	0.104
579.51	0.106
579.85	0.106
580.19	0.106
580.53	0.106
580.87	0.104
581.21	0.099
581.55	0.096
581.89	0.102
582.24	0.107
582.58	0.109
582.92	0.102
583.26	0.103
583.60	0.105
583.94	0.107
584.28	0.102
584.62	0.104
584.96	0.102
585.30	0.110
585.64	0.101
585.98	0.102
586.32	0.103
586.66	0.098
586.99	0.104
587.33	0.107
587.67	0.102
588.01	0.099
588.35	0.102
588.69	0.100
589.03	0.109
589.37	0.101
589.71	0.106
590.05	0.105
590.39	0.108
590.73	0.103
591.07	0.100
591.41	0.099
591.74	0.102
592.08	0.106
592.42	0.103
592.76	0.105
593.10	0.108
593.44	0.103
593.78	0.103
594.12	0.104
594.45	0.100
594.79	0.100
595.13	0.097
595.47	0.100
595.81	0.095
596.15	0.100
596.48	0.095
596.82	0.097
597.16	0.103
597.50	0.099
597.84	0.099
598.17	0.105
598.51	0.099
598.85	0.104
599.19	0.097
599.53	0.097
599.86	0.100
600.20	0.097
600.54	0.101
600.88	0.103
601.21	0.094
601.55	0.098
601.89	0.101
602.23	0.099
602.56	0.100
602.90	0.103
603.24	0.093
603.57	0.098
603.91	0.093
604.25	0.099
604.58	0.098
604.92	0.099
605.26	0.094
605.60	0.096
605.93	0.094
606.27	0.090
606.61	0.096
606.94	0.091
607.28	0.093
607.61	0.094
607.95	0.094
608.29	0.096
608.62	0.091
608.96	0.097
609.30	0.091
609.63	0.090
609.97	0.092
610.30	0.087
610.64	0.090
610.98	0.089
611.31	0.089
611.65	0.088
611.98	0.089
612.32	0.085
612.66	0.083
612.99	0.087
613.33	0.084
613.66	0.086
614.00	0.083
614.33	0.089
614.67	0.085
615.00	0.085
615.34	0.086
615.67	0.086
616.01	0.085
616.34	0.082
616.68	0.083
617.01	0.086
617.35	0.085
617.68	0.089
618.02	0.089
618.35	0.086
618.69	0.086
619.02	0.091
619.36	0.089
619.69	0.088
620.03	0.089
620.36	0.092
620.70	0.090
621.03	0.094
621.37	0.094
621.70	0.095
622.03	0.092
622.37	0.092
622.70	0.094
623.04	0.097
623.37	0.091
623.70	0.087
624.04	0.094
624.37	0.095
624.71	0.100
625.04	0.090
625.37	0.090
625.71	0.093
626.04	0.089
626.37	0.094
626.71	0.091
627.04	0.094
627.37	0.093
627.71	0.091
628.04	0.093
628.37	0.092
628.71	0.091
629.04	0.094
629.37	0.086
629.71	0.092
630.04	0.095
630.37	0.096
630.70	0.093
631.04	0.092
631.37	0.094
631.70	0.092
632.04	0.097
632.37	0.093
632.70	0.095
633.03	0.096
633.37	0.096
633.70	0.095
634.03	0.097
634.36	0.094
634.69	0.090
635.03	0.091
635.36	0.091
635.69	0.093
636.02	0.097
636.35	0.093
636.69	0.088
637.02	0.091
637.35	0.093
637.68	0.089
638.01	0.095
638.34	0.092
638.68	0.096
639.01	0.093
639.34	0.090
639.67	0.089
640.00	0.089
640.33	0.091
640.66	0.092
641.00	0.090
641.33	0.089
641.66	0.091
641.99	0.090
642.32	0.087
642.65	0.090
642.98	0.096
643.31	0.090
643.64	0.092
643.97	0.092
644.30	0.090
644.63	0.085
644.96	0.092
645.30	0.088
645.63	0.085
645.96	0.089
646.29	0.087
646.62	0.089
646.95	0.087
647.28	0.090
647.61	0.090
647.94	0.091
648.27	0.087
648.60	0.086
648.93	0.093
649.26	0.092
649.59	0.090
649.92	0.089
650.25	0.091
650.58	0.083
650.90	0.090
651.23	0.088
651.56	0.093
651.89	0.093
652.22	0.089
652.55	0.088
652.88	0.091
653.21	0.096
653.54	0.090
653.87	0.090
654.20	0.088
654.53	0.087
654.85	0.089
655.18	0.090
655.51	0.090
655.84	0.094
656.17	0.095
656.50	0.088
656.83	0.088
657.16	0.089
657.48	0.089
657.81	0.087
658.14	0.093
658.47	0.092
658.80	0.085
659.12	0.087
659.45	0.085
659.78	0.085
660.11	0.086
660.44	0.088
660.76	0.090
661.09	0.087
661.42	0.087
661.75	0.086
662.08	0.089
662.40	0.088
662.73	0.087
663.06	0.084
663.39	0.095
663.71	0.091
664.04	0.087
664.37	0.088
664.70	0.082
665.02	0.091
665.35	0.087
665.68	0.087
666.00	0.086
666.33	0.091
666.66	0.084
666.98	0.090
667.31	0.087
667.64	0.087
667.96	0.090
668.29	0.090
668.62	0.085
668.94	0.084
669.27	0.091
669.60	0.087
669.92	0.091
670.25	0.089
670.58	0.087
670.90	0.089
671.23	0.091
671.55	0.089
671.88	0.088
672.21	0.087
672.53	0.086
672.86	0.089
673.18	0.080
673.51	0.088
673.83	0.084
674.16	0.086
674.49	0.091
674.81	0.089
675.14	0.088
675.46	0.090
675.79	0.086
676.11	0.087
676.44	0.081
676.76	0.086
677.09	0.087
677.41	0.082
677.74	0.083
678.06	0.088
678.39	0.080
678.71	0.087
679.04	0.077
679.36	0.088
679.69	0.081
680.01	0.083
680.34	0.087
680.66	0.083
680.99	0.083
681.31	0.082
681.63	0.086
681.96	0.086
682.28	0.088
682.61	0.078
682.93	0.085
683.25	0.083
683.58	0.088
683.90	0.086
684.23	0.081
684.55	0.089
684.87	0.097
685.20	0.083
685.52	0.085
685.84	0.080
686.17	0.088
686.49	0.083
686.82	0.086
687.14	0.089
687.46	0.087
687.79	0.090
688.11	0.086
688.43	0.088
688.75	0.085
689.08	0.091
689.40	0.088
689.72	0.086
690.05	0.085
690.37	0.083
690.69	0.087
691.01	0.088
691.34	0.086
691.66	0.081
691.98	0.086
692.30	0.086
692.63	0.082
692.95	0.089
693.27	0.086
693.59	0.088
693.92	0.090
694.24	0.088
694.56	0.087
694.88	0.083
695.20	0.087
695.53	0.088
695.85	0.090
696.17	0.087
696.49	0.095
696.81	0.090
697.13	0.097
697.46	0.086
697.78	0.086
698.10	0.087
698.42	0.088
698.74	0.082
699.06	0.086
699.38	0.088
699.71	0.083
700.03	0.087
700.35	0.089
700.67	0.083
700.99	0.088
701.31	0.084
701.63	0.082
701.95	0.086
702.27	0.081
702.59	0.090
702.91	0.090
703.23	0.085
703.55	0.086
703.87	0.089
704.20	0.088
704.52	0.087
704.84	0.078
705.16	0.084
705.48	0.082
705.80	0.090
706.12	0.086
706.44	0.085
706.76	0.085
707.08	0.088
707.40	0.088
707.72	0.087
708.03	0.090
708.35	0.088
708.67	0.088
708.99	0.092
709.31	0.090
709.63	0.082
709.95	0.087
710.27	0.086
710.59	0.094
710.91	0.091
711.23	0.080
711.55	0.086
711.87	0.081
712.19	0.082
712.50	0.092
712.82	0.080
713.14	0.079
713.46	0.081
713.78	0.091
714.10	0.081
714.42	0.080
714.73	0.088
715.05	0.083
715.37	0.082
715.69	0.090
716.01	0.088
716.33	0.091
716.64	0.083
716.96	0.086
717.28	0.088
717.60	0.083
717.92	0.084
718.23	0.088
718.55	0.084
718.87	0.085
719.19	0.089
719.50	0.092
719.82	0.091
720.14	0.086
720.46	0.089
720.77	0.084
721.09	0.088
721.41	0.090
721.73	0.092
722.04	0.094
722.36	0.081
722.68	0.085
722.99	0.091
723.31	0.092
723.63	0.087
723.94	0.083
724.26	0.086
724.58	0.088
724.89	0.085
725.21	0.090
725.53	0.091
725.84	0.089
726.16	0.092
726.48	0.080
726.79	0.086
727.11	0.080
727.42	0.091
727.74	0.084
728.06	0.082
728.37	0.083
728.69	0.080
729.00	0.086
729.32	0.086
729.64	0.079
729.95	0.086
730.27	0.083
730.58	0.086
730.90	0.087
731.21	0.082
731.53	0.085
731.84	0.086
732.16	0.086
732.47	0.084
732.79	0.075
733.10	0.088
733.42	0.082
733.73	0.081
734.05	0.084
734.36	0.094
734.68	0.084
734.99	0.085
735.31	0.084
735.62	0.087
735.94	0.092
736.25	0.092
736.57	0.084
736.88	0.085
737.19	0.085
737.51	0.086
737.82	0.092
738.14	0.077
738.45	0.093
738.76	0.089
739.08	0.088
739.39	0.086
739.71	0.078
740.02	0.088
740.33	0.084
740.65	0.087
740.96	0.078
741.27	0.080
741.59	0.081
741.90	0.077
742.21	0.082
742.53	0.078
742.84	0.077
743.15	0.076
743.47	0.078
743.78	0.077
744.09	0.085
744.41	0.083
744.72	0.085
745.03	0.086
745.34	0.084
745.66	0.081
745.97	0.086
746.28	0.083
746.59	0.078
746.91	0.080
747.22	0.082
747.53	0.081
747.84	0.085
748.16	0.086
748.47	0.084
748.78	0.088
749.09	0.092
749.40	0.094
749.72	0.079
750.03	0.083
750.34	0.079
750.65	0.088
750.96	0.083
751.28	0.090
751.59	0.079
751.90	0.079
752.21	0.076
752.52	0.082
752.83	0.090
753.14	0.082
753.45	0.081
753.77	0.080
754.08	0.087
754.39	0.088
754.70	0.075
755.01	0.078
755.32	0.073
755.63	0.087
755.94	0.084
756.25	0.082
756.56	0.080
756.87	0.081
757.18	0.073
757.49	0.085
757.80	0.080
758.12	0.075
758.43	0.081
758.74	0.080
759.05	0.085
759.36	0.071
759.67	0.071
759.98	0.067
760.29	0.078
760.60	0.086
760.90	0.085
761.21	0.076
761.52	0.083
761.83	0.077
762.14	0.075
762.45	0.082
762.76	0.083
763.07	0.079
763.38	0.082
763.69	0.080
764.00	0.084
764.31	0.080
764.62	0.081
764.93	0.077
765.23	0.076
765.54	0.079
765.85	0.082
766.16	0.079
766.47	0.073
766.78	0.086
767.09	0.085
767.40	0.082
767.70	0.087
768.01	0.080
768.32	0.076
768.63	0.084
768.94	0.085
769.24	0.077
769.55	0.072
769.86	0.083
770.17	0.086
770.48	0.081
770.78	0.094
771.09	0.091
771.40	0.084
771.71	0.088
772.01	0.085
772.32	0.085
772.63	0.074
772.94	0.085
773.24	0.079
773.55	0.088
773.86	0.080
774.17	0.087
774.47	0.079
774.78	0.079
775.09	0.089
775.39	0.092
775.70	0.092
776.01	0.085
776.31	0.092
776.62	0.085
776.93	0.071
777.23	0.089
777.54	0.072
777.85	0.077
778.15	0.072
778.46	0.081
778.77	0.077
779.07	0.079
779.38	0.081
779.68	0.080
779.99	0.080
780.30	0.074
780.60	0.079
780.91	0.074
781.21	0.080
781.52	0.083
781.82	0.071
782.13	0.070
782.43	0.074
782.74	0.078
783.05	0.079
783.35	0.089
783.66	0.071
783.96	0.083
784.27	0.091
784.57	0.084
784.88	0.071
785.18	0.085
785.49	0.078
785.79	0.081
786.10	0.071
786.40	0.084
786.70	0.062
787.01	0.078
787.31	0.070
787.62	0.081
787.92	0.079
788.23	0.075
788.53	0.078
788.84	0.071
789.14	0.078
789.44	0.085
789.75	0.090
790.05	0.094
790.36	0.074
790.66	0.083
790.96	0.074
791.27	0.063
791.57	0.086
791.87	0.074
792.18	0.081
792.48	0.074
792.78	0.098
793.09	0.087
793.39	0.079
793.69	0.078
794.00	0.069
794.30	0.082
794.60	0.069
794.91	0.075
795.21	0.076
795.51	0.073
795.81	0.065
796.12	0.076
796.42	0.081
796.72	0.082
797.02	0.070
797.33	0.084
797.63	0.079
797.93	0.092
798.23	0.072
798.54	0.080
798.84	0.086
799.14	0.083
799.44	0.080
799.74	0.081
800.05	0.091
800.35	0.078
800.65	0.082
800.95	0.069
801.25	0.083
801.55	0.082
801.86	0.073
802.16	0.074
802.46	0.075
802.76	0.081
803.06	0.075
803.36	0.083
803.66	0.068
803.96	0.084
804.26	0.067
804.57	0.090
804.87	0.090
805.17	0.078
805.47	0.074
805.77	0.078
806.07	0.078
806.37	0.080
806.67	0.081
806.97	0.062
807.27	0.080
807.57	0.071
807.87	0.105
808.17	0.085
808.47	0.079
808.77	0.077
809.07	0.081
809.37	0.082
809.67	0.083
809.97	0.073
810.27	0.074
810.57	0.074
810.87	0.093
811.17	0.074
811.47	0.098
811.77	0.061
812.07	0.086
812.37	0.057
812.67	0.072
812.97	0.080
813.26	0.084
813.56	0.071
813.86	0.078
814.16	0.074
814.46	0.074
814.76	0.091
815.06	0.076
815.36	0.070
815.66	0.077
815.95	0.067
816.25	0.071
816.55	0.075
816.85	0.081
817.15	0.076
817.45	0.072
817.74	0.087
818.04	0.074
818.34	0.073
818.64	0.081
818.94	0.065
819.23	0.083
819.53	0.083
819.83	0.066
820.13	0.082
820.42	0.073
820.72	0.053
821.02	0.077
821.32	0.075
821.61	0.079
821.91	0.072
822.21	0.096
822.50	0.080
822.80	0.083
823.10	0.076
823.40	0.083
823.69	0.076
823.99	0.081
824.29	0.067
824.58	0.071
824.88	0.071
825.18	0.087
825.47	0.082
825.77	0.077
826.06	0.062
826.36	0.068
826.66	0.087
826.95	0.095
827.25	0.079
827.55	0.069
827.84	0.067
828.14	0.076
828.43	0.084
828.73	0.069
829.02	0.092
829.32	0.088
829.62	0.079
829.91	0.079
830.21	0.077
830.50	0.088
830.80	0.092
831.09	0.098
831.39	0.080
831.68	0.079
831.98	0.085
832.27	0.069
832.57	0.079
832.86	0.077
833.16	0.078
833.45	0.086
833.75	0.069
834.04	0.079
834.34	0.088
834.63	0.064
834.93	0.087
835.22	0.077
835.51	0.056
835.81	0.068
836.10	0.061
836.40	0.043
836.69	0.069
836.98	0.065
837.28	0.066
837.57	0.070
837.87	0.068
838.16	0.066
838.45	0.067
838.75	0.080
839.04	0.065
839.33	0.079
839.63	0.069
839.92	0.065
840.21	0.099
840.51	0.083
840.80	0.077
841.09	0.085
841.39	0.074
841.68	0.080
841.97	0.056
842.26	0.065
842.56	0.070
842.85	0.065
843.14	0.080
843.43	0.088
843.73	0.069
844.02	0.073
844.31	0.066
844.60	0.066
844.90	0.084
845.19	0.071
845.48	0.084
845.77	0.067
846.06	0.063
846.36	0.072
846.65	0.079
846.94	0.079
847.23	0.071
847.52	0.096
847.81	0.085
848.11	0.054
848.40	0.066
848.69	0.087
848.98	0.083
849.27	0.075
849.56	0.076
849.85	0.095
850.14	0.064
850.44	0.077
850.73	0.095
851.02	0.091
851.31	0.059
851.60	0.071
851.89	0.066
852.18	0.056
852.47	0.076
852.76	0.066
853.05	0.073
853.34	0.064
853.63	0.062
853.92	0.083
854.21	0.076
854.50	0.065
854.79	0.082
855.08	0.079
855.37	0.074
855.66	0.077
855.95	0.055
856.24	0.052
856.53	0.071
856.82	0.088
857.11	0.083
857.40	0.085
857.69	0.060
857.98	0.068
858.27	0.081
858.56	0.093
858.84	0.077
859.13	0.071
859.42	0.071
859.71	0.075
860.00	0.083
860.29	0.070
860.58	0.060
860.87	0.080
861.15	0.085
861.44	0.076
861.73	0.093
862.02	0.059
862.31	0.069
862.60	0.060
862.88	0.088
863.17	0.082
863.46	0.071
863.75	0.078
864.04	0.075
864.32	0.113
864.61	0.071
864.90	0.081
865.19	0.118
865.47	0.111
865.76	0.087
866.05	0.086
866.34	0.083
866.62	0.082
866.91	0.069
867.20	0.064
867.49	0.056
867.77	0.095
868.06	0.071
868.35	0.063
868.63	0.062
868.92	0.070
869.21	0.076
869.49	0.083
869.78	0.077
870.07	0.085
870.35	0.065
870.64	0.078
870.92	0.076
871.21	0.057
871.50	0.068
871.78	0.058
872.07	0.068
872.35	0.088
872.64	0.080
872.93	0.097
873.21	0.127
873.50	0.078
873.78	0.060
874.07	0.072
874.35	0.092
874.64	0.078
874.93	0.076
875.21	0.082
875.50	0.059
875.78	0.061
876.07	0.085
876.35	0.071
876.64	0.087
>>>>>End Spectral Data<<<<<
