177.27	0.000
177.66	0.000
178.05	-0.458
178.43	0.000
178.82	0.386
179.21	0.144
179.59	0.386
179.98	0.000
180.36	0.000
180.75	0.000
181.14	0.000
181.52	0.000
181.91	0.000
182.29	0.000
182.68	0.000
183.07	-0.841
183.45	0.000
183.84	0.966
184.22	0.000
184.61	0.000
185.00	0.000
185.38	0.000
185.77	0.000
186.15	-0.133
186.54	0.078
186.93	-0.356
187.31	-0.238
187.70	0.000
188.08	0.000
188.47	0.000
188.85	0.988
189.24	0.000
189.62	0.256
190.01	0.124
190.39	-0.172
190.78	-0.335
191.17	0.000
191.55	0.000
191.94	-0.229
192.32	-0.381
192.71	0.000
193.09	0.000
193.48	-1.074
193.86	0.233
194.25	-1.319
194.63	0.000
195.02	0.000
195.40	0.000
195.79	-0.346
196.17	-0.133
196.56	0.268
196.94	-0.216
197.33	-0.099
197.71	-0.079
198.10	0.000
198.48	-0.271
198.87	0.000
199.25	0.403
199.63	0.345
200.02	0.000
200.40	0.573
200.79	0.000
201.17	0.000
201.56	0.000
201.94	-0.206
202.33	0.966
202.71	-0.327
203.09	-0.841
203.48	0.000
203.86	-0.632
204.25	-0.174
204.63	0.000
205.02	0.166
205.40	-0.204
205.78	-0.025
206.17	0.070
206.55	-0.041
206.94	0.449
207.32	0.000
207.70	-0.204
208.09	0.000
208.47	0.000
208.86	-0.947
209.24	0.000
209.62	0.000
210.01	-0.065
210.39	0.510
210.77	-0.216
211.16	-0.174
211.54	1.075
211.92	-0.167
212.31	0.000
212.69	-0.327
213.07	0.009
213.46	-0.138
213.84	-0.527
214.23	0.079
214.61	-0.451
214.99	0.000
215.37	-0.079
215.76	0.000
216.14	0.166
216.52	0.000
216.91	0.033
217.29	-0.407
217.67	0.673
218.06	-0.346
218.44	0.000
218.82	-0.077
219.21	0.673
219.59	0.143
219.97	0.735
220.35	0.052
220.74	-0.409
221.12	-0.458
221.50	-0.953
221.88	0.573
222.27	-0.099
222.65	0.000
223.03	0.123
223.42	-0.346
223.80	-0.262
224.18	0.000
224.56	0.000
224.94	0.231
225.33	-0.558
225.71	0.541
226.09	0.363
226.47	0.032
226.86	-0.056
227.24	-0.229
227.62	-0.356
228.00	0.000
228.38	-0.079
228.77	0.000
229.15	0.144
229.53	0.499
229.91	0.492
230.29	-0.138
230.68	0.007
231.06	-0.167
231.44	0.111
231.82	0.000
232.20	-0.356
232.59	0.256
232.97	0.596
233.35	0.204
233.73	0.098
234.11	-0.103
234.49	-0.688
234.87	-0.252
235.26	0.000
235.64	0.331
236.02	-0.153
236.40	-0.650
236.78	-0.153
237.16	-0.252
237.54	0.082
237.93	0.000
238.31	-0.381
238.69	-0.167
239.07	0.098
239.45	0.225
239.83	0.346
240.21	0.000
240.59	0.257
240.97	-0.172
241.35	-0.325
241.74	0.052
242.12	0.000
242.50	0.166
242.88	0.000
243.26	-0.099
243.64	-0.381
244.02	-0.048
244.40	0.000
244.78	0.323
245.16	0.011
245.54	0.039
245.92	0.000
246.30	0.345
246.68	0.000
247.06	-0.768
247.44	-0.953
247.82	-0.472
248.20	0.400
248.59	-0.238
248.97	-0.065
249.35	-0.252
249.73	-0.049
250.11	0.000
250.49	-0.469
250.87	0.655
251.25	0.123
251.63	-0.271
252.01	0.144
252.39	0.000
252.77	0.098
253.15	0.000
253.52	-0.133
253.90	0.331
254.28	0.403
254.66	0.020
255.04	0.211
255.42	0.000
255.80	0.000
256.18	-0.327
256.56	-0.469
256.94	0.018
257.32	0.082
257.70	0.345
258.08	1.163
258.46	-0.133
258.84	-0.099
259.22	0.039
259.60	0.000
259.98	0.020
260.35	0.070
260.73	0.722
261.11	0.838
261.49	-0.075
261.87	0.498
262.25	0.052
262.63	-0.087
263.01	-0.346
263.39	0.000
263.77	0.000
264.14	-0.451
264.52	-0.768
264.90	0.000
265.28	0.000
265.66	0.276
266.04	0.655
266.42	0.011
266.79	0.231
267.17	-0.695
267.55	-1.074
267.93	0.000
268.31	-0.172
268.69	-0.233
269.06	-0.161
269.44	0.419
269.82	0.275
270.20	-0.356
270.58	0.000
270.96	0.233
271.33	0.170
271.71	0.009
272.09	-0.206
272.47	-0.079
272.85	-0.036
273.22	0.000
273.60	0.000
273.98	0.000
274.36	-0.151
274.73	0.054
275.11	0.000
275.49	0.009
275.87	-0.474
276.25	0.098
276.62	-1.319
277.00	0.819
277.38	0.345
277.76	-0.111
278.13	0.106
278.51	0.000
278.89	0.000
279.26	-0.049
279.64	-0.225
280.02	0.000
280.40	0.000
280.77	0.098
281.15	0.000
281.53	0.000
281.90	0.032
282.28	-0.262
282.66	-0.036
283.04	-0.451
283.41	-0.313
283.79	-0.472
284.17	0.000
284.54	-0.953
284.92	0.417
285.30	0.166
285.67	-0.108
286.05	-0.079
286.43	0.000
286.80	0.014
287.18	0.039
287.56	0.000
287.93	-0.225
288.31	-0.030
288.69	0.143
289.06	0.020
289.44	0.386
289.81	0.166
290.19	0.113
290.57	0.005
290.94	0.143
291.32	0.000
291.70	0.000
292.07	-0.160
292.45	-0.048
292.82	-0.099
293.20	-0.075
293.58	-0.430
293.95	0.027
294.33	0.363
294.70	-0.776
295.08	0.000
295.45	0.345
295.83	-0.695
296.21	0.039
296.58	0.166
296.96	-1.251
297.33	0.000
297.71	0.745
298.08	0.006
298.46	0.000
298.83	0.144
299.21	0.000
299.58	-0.632
299.96	0.268
300.34	0.000
300.71	0.170
301.09	-0.182
301.46	-0.947
301.84	0.000
302.21	0.052
302.59	0.363
302.96	-0.174
303.34	-0.841
303.71	-0.768
304.09	-0.262
304.46	0.331
304.84	0.363
305.21	-0.048
305.58	0.144
305.96	0.000
306.33	-0.142
306.71	-0.206
307.08	-0.133
307.46	0.000
307.83	0.790
308.21	-0.252
308.58	1.298
308.96	0.000
309.33	0.000
309.70	0.345
310.08	0.000
310.45	0.000
310.83	-0.049
311.20	0.000
311.57	0.040
311.95	-0.327
312.32	0.257
312.70	-0.041
313.07	0.330
313.44	0.000
313.82	1.163
314.19	0.027
314.57	0.346
314.94	0.166
315.31	1.075
315.69	-0.206
316.06	0.109
316.43	0.000
316.81	0.600
317.18	0.000
317.55	-1.235
317.93	-0.225
318.30	0.173
318.68	-0.407
319.05	0.171
319.42	0.000
319.79	0.061
320.17	-0.036
320.54	0.233
320.91	0.450
321.29	1.075
321.66	0.386
322.03	0.007
322.41	0.170
322.78	0.098
323.15	0.000
323.53	-0.387
323.90	0.417
324.27	0.082
324.64	0.106
325.02	0.082
325.39	-0.087
325.76	0.007
326.13	0.056
326.51	-0.129
326.88	0.090
327.25	0.011
327.62	0.256
328.00	0.070
328.37	0.056
328.74	0.403
329.11	0.212
329.49	-0.129
329.86	-0.252
330.23	0.124
330.60	0.000
330.97	0.124
331.35	0.113
331.72	0.173
332.09	0.173
332.46	-0.035
332.83	-0.036
333.21	0.054
333.58	0.457
333.95	0.011
334.32	0.268
334.69	-0.049
335.06	0.265
335.44	0.198
335.81	0.018
336.18	-0.039
336.55	0.833
336.92	0.144
337.29	0.499
337.67	0.064
338.04	0.015
338.41	0.037
338.78	0.314
339.15	0.032
339.52	0.158
339.89	0.124
340.26	0.212
340.63	-0.090
341.01	0.282
341.38	0.080
341.75	0.011
342.12	0.255
342.49	0.073
342.86	-0.030
343.23	0.261
343.60	0.097
343.97	-0.047
344.34	-0.092
344.71	0.288
345.08	0.165
345.46	0.184
345.83	0.022
346.20	0.184
346.57	-0.032
346.94	0.311
347.31	0.150
347.68	0.036
348.05	-0.092
348.42	0.133
348.79	0.293
349.16	-0.037
349.53	0.112
349.90	0.114
350.27	-0.022
350.64	0.044
351.01	0.052
351.38	0.174
351.75	0.102
352.12	-0.223
352.49	0.002
352.86	0.029
353.23	0.125
353.60	0.223
353.97	-0.028
354.34	0.071
354.71	0.182
355.08	0.328
355.44	0.102
355.81	0.007
356.18	0.036
356.55	0.073
356.92	0.134
357.29	0.065
357.66	0.162
358.03	0.193
358.40	0.091
358.77	0.154
359.14	0.111
359.51	0.092
359.88	0.229
360.24	0.122
360.61	0.090
360.98	0.057
361.35	0.170
361.72	0.071
362.09	0.170
362.46	0.096
362.83	0.011
363.19	0.037
363.56	0.150
363.93	0.125
364.30	0.091
364.67	0.079
365.04	0.021
365.41	0.023
365.77	0.142
366.14	0.049
366.51	0.118
366.88	0.045
367.25	0.129
367.61	0.145
367.98	0.186
368.35	0.075
368.72	0.049
369.09	0.142
369.45	0.105
369.82	0.101
370.19	0.087
370.56	0.098
370.93	0.135
371.29	0.115
371.66	0.164
372.03	0.055
372.40	0.099
372.76	0.092
373.13	0.084
373.50	0.053
373.87	0.148
374.23	0.059
374.60	0.132
374.97	0.076
375.34	0.076
375.70	0.077
376.07	0.122
376.44	0.144
376.80	0.113
377.17	0.108
377.54	0.087
377.91	0.095
378.27	0.102
378.64	0.095
379.01	0.093
379.37	0.119
379.74	0.111
380.11	0.106
380.47	0.127
380.84	0.082
381.21	0.140
381.57	0.164
381.94	0.080
382.31	0.113
382.67	0.081
383.04	0.045
383.41	0.109
383.77	0.154
384.14	0.113
384.50	0.104
384.87	0.138
385.24	0.124
385.60	0.143
385.97	0.111
386.34	0.086
386.70	0.085
387.07	0.074
387.43	0.088
387.80	0.122
388.16	0.091
388.53	0.111
388.90	0.112
389.26	0.081
389.63	0.105
389.99	0.101
390.36	0.114
390.72	0.126
391.09	0.136
391.46	0.116
391.82	0.095
392.19	0.149
392.55	0.106
392.92	0.106
393.28	0.121
393.65	0.091
394.01	0.088
394.38	0.108
394.74	0.098
395.11	0.072
395.47	0.099
395.84	0.104
396.20	0.126
396.57	0.111
396.93	0.103
397.30	0.124
397.66	0.082
398.03	0.097
398.39	0.097
398.76	0.086
399.12	0.112
399.48	0.110
399.85	0.114
400.21	0.097
400.58	0.100
400.94	0.101
401.31	0.118
401.67	0.112
402.04	0.127
402.40	0.115
402.76	0.093
403.13	0.106
403.49	0.099
403.86	0.120
404.22	0.096
404.58	0.084
404.95	0.110
405.31	0.105
405.68	0.097
406.04	0.109
406.40	0.108
406.77	0.099
407.13	0.099
407.49	0.098
407.86	0.113
408.22	0.096
408.58	0.108
408.95	0.099
409.31	0.102
409.67	0.105
410.04	0.097
410.40	0.115
410.76	0.078
411.13	0.114
411.49	0.108
411.85	0.097
412.22	0.100
412.58	0.107
412.94	0.103
413.31	0.095
413.67	0.096
414.03	0.109
414.39	0.100
414.76	0.096
415.12	0.120
415.48	0.100
415.84	0.111
416.21	0.112
416.57	0.100
416.93	0.104
417.29	0.096
417.66	0.097
418.02	0.106
418.38	0.114
418.74	0.096
419.11	0.110
419.47	0.095
419.83	0.092
420.19	0.108
420.55	0.089
420.92	0.106
421.28	0.101
421.64	0.106
422.00	0.111
422.36	0.102
422.73	0.096
423.09	0.100
423.45	0.099
423.81	0.092
424.17	0.102
424.53	0.104
424.90	0.093
425.26	0.089
425.62	0.101
425.98	0.113
426.34	0.112
426.70	0.093
427.06	0.095
427.43	0.097
427.79	0.109
428.15	0.097
428.51	0.103
428.87	0.098
429.23	0.110
429.59	0.101
429.95	0.095
430.31	0.107
430.67	0.091
431.03	0.102
431.40	0.097
431.76	0.095
432.12	0.097
432.48	0.091
432.84	0.096
433.20	0.111
433.56	0.095
433.92	0.100
434.28	0.106
434.64	0.093
435.00	0.111
435.36	0.098
435.72	0.105
436.08	0.096
436.44	0.111
436.80	0.102
437.16	0.095
437.52	0.118
437.88	0.104
438.24	0.094
438.60	0.096
438.96	0.094
439.32	0.109
439.68	0.101
440.04	0.099
440.40	0.097
440.76	0.097
441.12	0.102
441.48	0.105
441.84	0.096
442.20	0.098
442.56	0.099
442.92	0.092
443.28	0.097
443.63	0.099
443.99	0.092
444.35	0.105
444.71	0.095
445.07	0.092
445.43	0.095
445.79	0.085
446.15	0.096
446.51	0.093
446.87	0.102
447.22	0.097
447.58	0.096
447.94	0.109
448.30	0.099
448.66	0.099
449.02	0.103
449.38	0.102
449.74	0.090
450.09	0.105
450.45	0.095
450.81	0.101
451.17	0.108
451.53	0.096
451.89	0.104
452.24	0.095
452.60	0.091
452.96	0.094
453.32	0.098
453.68	0.102
454.03	0.094
454.39	0.094
454.75	0.093
455.11	0.101
455.46	0.102
455.82	0.094
456.18	0.092
456.54	0.096
456.90	0.101
457.25	0.099
457.61	0.094
457.97	0.088
458.33	0.091
458.68	0.095
459.04	0.100
459.40	0.098
459.75	0.097
460.11	0.096
460.47	0.100
460.83	0.094
461.18	0.103
461.54	0.101
461.90	0.092
462.25	0.099
462.61	0.099
462.97	0.101
463.32	0.094
463.68	0.094
464.04	0.089
464.39	0.098
464.75	0.095
465.11	0.100
465.46	0.105
465.82	0.095
466.18	0.101
466.53	0.093
466.89	0.096
467.25	0.099
467.60	0.111
467.96	0.102
468.31	0.088
468.67	0.096
469.03	0.093
469.38	0.098
469.74	0.095
470.09	0.100
470.45	0.100
470.81	0.091
471.16	0.085
471.52	0.099
471.87	0.098
472.23	0.092
472.59	0.094
472.94	0.101
473.30	0.095
473.65	0.090
474.01	0.098
474.36	0.093
474.72	0.104
475.07	0.110
475.43	0.100
475.78	0.097
476.14	0.094
476.49	0.095
476.85	0.094
477.20	0.100
477.56	0.102
477.91	0.099
478.27	0.100
478.62	0.099
478.98	0.100
479.33	0.093
479.69	0.088
480.04	0.096
480.40	0.092
480.75	0.097
481.11	0.096
481.46	0.088
481.81	0.091
482.17	0.096
482.52	0.091
482.88	0.094
483.23	0.091
483.59	0.094
483.94	0.091
484.29	0.097
484.65	0.095
485.00	0.096
485.36	0.103
485.71	0.085
486.06	0.093
486.42	0.096
486.77	0.091
487.13	0.093
487.48	0.094
487.83	0.096
488.19	0.089
488.54	0.098
488.89	0.100
489.25	0.103
489.60	0.088
489.95	0.093
490.31	0.097
490.66	0.098
491.01	0.103
491.37	0.093
491.72	0.100
492.07	0.096
492.43	0.100
492.78	0.099
493.13	0.094
493.48	0.096
493.84	0.095
494.19	0.090
494.54	0.098
494.89	0.103
495.25	0.100
495.60	0.102
495.95	0.100
496.31	0.091
496.66	0.086
497.01	0.094
497.36	0.094
497.71	0.091
498.07	0.096
498.42	0.096
498.77	0.090
499.12	0.096
499.48	0.098
499.83	0.097
500.18	0.098
500.53	0.089
500.88	0.091
501.24	0.099
501.59	0.089
501.94	0.100
502.29	0.094
502.64	0.091
502.99	0.094
503.35	0.084
503.70	0.090
504.05	0.094
504.40	0.089
504.75	0.093
505.10	0.090
505.45	0.094
505.80	0.088
506.16	0.096
506.51	0.093
506.86	0.083
507.21	0.092
507.56	0.095
507.91	0.093
508.26	0.096
508.61	0.100
508.96	0.091
509.31	0.096
509.67	0.088
510.02	0.088
510.37	0.093
510.72	0.091
511.07	0.085
511.42	0.086
511.77	0.085
512.12	0.091
512.47	0.091
512.82	0.088
513.17	0.091
513.52	0.095
513.87	0.084
514.22	0.087
514.57	0.087
514.92	0.092
515.27	0.092
515.62	0.087
515.97	0.088
516.32	0.089
516.67	0.090
517.02	0.087
517.37	0.085
517.72	0.088
518.07	0.090
518.42	0.089
518.77	0.088
519.12	0.086
519.47	0.085
519.82	0.089
520.16	0.086
520.51	0.083
520.86	0.082
521.21	0.088
521.56	0.086
521.91	0.088
522.26	0.087
522.61	0.089
522.96	0.091
523.31	0.084
523.65	0.088
524.00	0.088
524.35	0.090
524.70	0.085
525.05	0.083
525.40	0.088
525.75	0.088
526.09	0.087
526.44	0.085
526.79	0.087
527.14	0.087
527.49	0.088
527.84	0.089
528.18	0.084
528.53	0.086
528.88	0.087
529.23	0.085
529.58	0.087
529.92	0.088
530.27	0.084
530.62	0.087
530.97	0.091
531.32	0.085
531.66	0.089
532.01	0.088
532.36	0.090
532.71	0.086
533.05	0.091
533.40	0.090
533.75	0.087
534.10	0.086
534.44	0.085
534.79	0.086
535.14	0.091
535.48	0.085
535.83	0.084
536.18	0.085
536.53	0.087
536.87	0.084
537.22	0.084
537.57	0.084
537.91	0.077
538.26	0.090
538.61	0.088
538.95	0.090
539.30	0.081
539.65	0.080
539.99	0.087
540.34	0.084
540.69	0.082
541.03	0.085
541.38	0.084
541.73	0.088
542.07	0.078
542.42	0.081
542.76	0.087
543.11	0.080
543.46	0.083
543.80	0.086
544.15	0.082
544.49	0.086
544.84	0.085
545.18	0.081
545.53	0.083
545.88	0.083
546.22	0.084
546.57	0.080
546.91	0.086
547.26	0.083
547.60	0.084
547.95	0.079
548.29	0.087
548.64	0.082
548.99	0.082
549.33	0.079
549.68	0.081
550.02	0.077
550.37	0.079
550.71	0.078
551.06	0.078
551.40	0.079
551.75	0.083
552.09	0.085
552.43	0.081
552.78	0.076
553.12	0.079
553.47	0.070
553.81	0.077
554.16	0.085
554.50	0.078
554.85	0.079
555.19	0.072
555.54	0.075
555.88	0.080
556.22	0.080
556.57	0.080
556.91	0.085
557.26	0.078
557.60	0.081
557.94	0.076
558.29	0.082
558.63	0.080
558.98	0.080
559.32	0.077
559.66	0.076
560.01	0.078
560.35	0.079
560.69	0.077
561.04	0.078
561.38	0.076
561.72	0.073
562.07	0.077
562.41	0.078
562.75	0.077
563.10	0.073
563.44	0.074
563.78	0.077
564.13	0.073
564.47	0.075
564.81	0.074
565.16	0.076
565.50	0.071
565.84	0.079
566.18	0.074
566.53	0.075
566.87	0.073
567.21	0.073
567.55	0.075
567.90	0.076
568.24	0.076
568.58	0.070
568.92	0.070
569.27	0.072
569.61	0.076
569.95	0.074
570.29	0.075
570.63	0.074
570.98	0.077
571.32	0.075
571.66	0.072
572.00	0.077
572.34	0.069
572.69	0.075
573.03	0.074
573.37	0.076
573.71	0.073
574.05	0.074
574.39	0.073
574.74	0.075
575.08	0.072
575.42	0.075
575.76	0.075
576.10	0.072
576.44	0.076
576.78	0.073
577.12	0.077
577.47	0.074
577.81	0.075
578.15	0.078
578.49	0.073
578.83	0.075
579.17	0.074
579.51	0.071
579.85	0.071
580.19	0.072
580.53	0.073
580.87	0.074
581.21	0.068
581.55	0.067
581.89	0.070
582.24	0.073
582.58	0.078
582.92	0.067
583.26	0.070
583.60	0.075
583.94	0.075
584.28	0.070
584.62	0.072
584.96	0.073
585.30	0.071
585.64	0.070
585.98	0.069
586.32	0.068
586.66	0.067
586.99	0.070
587.33	0.075
587.67	0.075
588.01	0.064
588.35	0.070
588.69	0.068
589.03	0.073
589.37	0.071
589.71	0.068
590.05	0.072
590.39	0.073
590.73	0.075
591.07	0.069
591.41	0.069
591.74	0.075
592.08	0.074
592.42	0.073
592.76	0.070
593.10	0.073
593.44	0.070
593.78	0.072
594.12	0.068
594.45	0.069
594.79	0.068
595.13	0.067
595.47	0.064
595.81	0.069
596.15	0.069
596.48	0.065
596.82	0.070
597.16	0.070
597.50	0.068
597.84	0.070
598.17	0.071
598.51	0.069
598.85	0.067
599.19	0.066
599.53	0.071
599.86	0.070
600.20	0.069
600.54	0.073
600.88	0.069
601.21	0.064
601.55	0.071
601.89	0.071
602.23	0.068
602.56	0.073
602.90	0.072
603.24	0.063
603.57	0.064
603.91	0.069
604.25	0.070
604.58	0.066
604.92	0.071
605.26	0.066
605.60	0.068
605.93	0.065
606.27	0.068
606.61	0.068
606.94	0.063
607.28	0.069
607.61	0.067
607.95	0.063
608.29	0.064
608.62	0.064
608.96	0.061
609.30	0.061
609.63	0.062
609.97	0.058
610.30	0.062
610.64	0.062
610.98	0.058
611.31	0.056
611.65	0.058
611.98	0.057
612.32	0.057
612.66	0.057
612.99	0.055
613.33	0.054
613.66	0.056
614.00	0.052
614.33	0.052
614.67	0.052
615.00	0.057
615.34	0.058
615.67	0.059
616.01	0.054
616.34	0.055
616.68	0.054
617.01	0.057
617.35	0.057
617.68	0.058
618.02	0.056
618.35	0.059
618.69	0.058
619.02	0.060
619.36	0.062
619.69	0.063
620.03	0.063
620.36	0.064
620.70	0.063
621.03	0.064
621.37	0.062
621.70	0.064
622.03	0.065
622.37	0.062
622.70	0.067
623.04	0.062
623.37	0.061
623.70	0.062
624.04	0.063
624.37	0.066
624.71	0.064
625.04	0.064
625.37	0.063
625.71	0.063
626.04	0.058
626.37	0.065
626.71	0.062
627.04	0.063
627.37	0.062
627.71	0.064
628.04	0.066
628.37	0.065
628.71	0.063
629.04	0.067
629.37	0.059
629.71	0.066
630.04	0.068
630.37	0.070
630.70	0.065
631.04	0.064
631.37	0.063
631.70	0.060
632.04	0.062
632.37	0.066
632.70	0.063
633.03	0.068
633.37	0.068
633.70	0.065
634.03	0.066
634.36	0.060
634.69	0.060
635.03	0.062
635.36	0.060
635.69	0.063
636.02	0.058
636.35	0.062
636.69	0.065
637.02	0.063
637.35	0.064
637.68	0.062
638.01	0.066
638.34	0.062
638.68	0.062
639.01	0.064
639.34	0.064
639.67	0.060
640.00	0.064
640.33	0.064
640.66	0.067
641.00	0.063
641.33	0.059
641.66	0.061
641.99	0.067
642.32	0.063
642.65	0.062
642.98	0.063
643.31	0.061
643.64	0.060
643.97	0.061
644.30	0.065
644.63	0.057
644.96	0.064
645.30	0.060
645.63	0.059
645.96	0.063
646.29	0.063
646.62	0.059
646.95	0.058
647.28	0.060
647.61	0.063
647.94	0.064
648.27	0.061
648.60	0.061
648.93	0.063
649.26	0.060
649.59	0.059
649.92	0.063
650.25	0.065
650.58	0.058
650.90	0.061
651.23	0.058
651.56	0.064
651.89	0.063
652.22	0.059
652.55	0.059
652.88	0.063
653.21	0.066
653.54	0.066
653.87	0.062
654.20	0.060
654.53	0.062
654.85	0.056
655.18	0.059
655.51	0.063
655.84	0.070
656.17	0.067
656.50	0.059
656.83	0.061
657.16	0.057
657.48	0.057
657.81	0.062
658.14	0.065
658.47	0.062
658.80	0.060
659.12	0.059
659.45	0.060
659.78	0.057
660.11	0.059
660.44	0.061
660.76	0.060
661.09	0.059
661.42	0.058
661.75	0.060
662.08	0.063
662.40	0.058
662.73	0.058
663.06	0.059
663.39	0.062
663.71	0.058
664.04	0.062
664.37	0.063
664.70	0.063
665.02	0.060
665.35	0.065
665.68	0.063
666.00	0.057
666.33	0.060
666.66	0.057
666.98	0.062
667.31	0.062
667.64	0.060
667.96	0.062
668.29	0.059
668.62	0.059
668.94	0.061
669.27	0.061
669.60	0.057
669.92	0.063
670.25	0.064
670.58	0.059
670.90	0.068
671.23	0.063
671.55	0.063
671.88	0.064
672.21	0.058
672.53	0.055
672.86	0.061
673.18	0.055
673.51	0.059
673.83	0.057
674.16	0.061
674.49	0.062
674.81	0.061
675.14	0.057
675.46	0.062
675.79	0.058
676.11	0.058
676.44	0.054
676.76	0.057
677.09	0.059
677.41	0.059
677.74	0.055
678.06	0.057
678.39	0.058
678.71	0.055
679.04	0.053
679.36	0.063
679.69	0.059
680.01	0.059
680.34	0.058
680.66	0.057
680.99	0.059
681.31	0.063
681.63	0.061
681.96	0.060
682.28	0.060
682.61	0.051
682.93	0.056
683.25	0.055
683.58	0.056
683.90	0.056
684.23	0.060
684.55	0.057
684.87	0.064
685.20	0.054
685.52	0.059
685.84	0.055
686.17	0.058
686.49	0.057
686.82	0.061
687.14	0.057
687.46	0.062
687.79	0.061
688.11	0.056
688.43	0.058
688.75	0.057
689.08	0.060
689.40	0.060
689.72	0.063
690.05	0.060
690.37	0.063
690.69	0.059
691.01	0.056
691.34	0.062
691.66	0.059
691.98	0.059
692.30	0.063
692.63	0.055
692.95	0.063
693.27	0.059
693.59	0.056
693.92	0.059
694.24	0.064
694.56	0.057
694.88	0.060
695.20	0.060
695.53	0.063
695.85	0.064
696.17	0.056
696.49	0.066
696.81	0.065
697.13	0.063
697.46	0.051
697.78	0.052
698.10	0.057
698.42	0.053
698.74	0.065
699.06	0.067
699.38	0.057
699.71	0.058
700.03	0.061
700.35	0.061
700.67	0.065
700.99	0.059
701.31	0.062
701.63	0.055
701.95	0.057
702.27	0.054
702.59	0.064
702.91	0.065
703.23	0.058
703.55	0.059
703.87	0.056
704.20	0.063
704.52	0.063
704.84	0.055
705.16	0.057
705.48	0.059
705.80	0.061
706.12	0.057
706.44	0.062
706.76	0.054
707.08	0.054
707.40	0.054
707.72	0.056
708.03	0.059
708.35	0.065
708.67	0.052
708.99	0.058
709.31	0.062
709.63	0.055
709.95	0.061
710.27	0.058
710.59	0.062
710.91	0.059
711.23	0.057
711.55	0.058
711.87	0.058
712.19	0.060
712.50	0.047
712.82	0.048
713.14	0.052
713.46	0.052
713.78	0.062
714.10	0.059
714.42	0.055
714.73	0.058
715.05	0.062
715.37	0.057
715.69	0.059
716.01	0.059
716.33	0.057
716.64	0.054
716.96	0.062
717.28	0.067
717.60	0.065
717.92	0.049
718.23	0.057
718.55	0.055
718.87	0.060
719.19	0.064
719.50	0.056
719.82	0.058
720.14	0.060
720.46	0.057
720.77	0.056
721.09	0.058
721.41	0.069
721.73	0.062
722.04	0.063
722.36	0.065
722.68	0.061
722.99	0.052
723.31	0.053
723.63	0.060
723.94	0.060
724.26	0.054
724.58	0.063
724.89	0.057
725.21	0.068
725.53	0.062
725.84	0.058
726.16	0.057
726.48	0.051
726.79	0.053
727.11	0.064
727.42	0.056
727.74	0.051
728.06	0.056
728.37	0.060
728.69	0.055
729.00	0.052
729.32	0.054
729.64	0.055
729.95	0.057
730.27	0.050
730.58	0.061
730.90	0.060
731.21	0.056
731.53	0.062
731.84	0.057
732.16	0.064
732.47	0.053
732.79	0.053
733.10	0.060
733.42	0.059
733.73	0.055
734.05	0.064
734.36	0.060
734.68	0.055
734.99	0.062
735.31	0.060
735.62	0.062
735.94	0.057
736.25	0.068
736.57	0.058
736.88	0.049
737.19	0.064
737.51	0.051
737.82	0.058
738.14	0.055
738.45	0.064
738.76	0.059
739.08	0.060
739.39	0.059
739.71	0.057
740.02	0.066
740.33	0.051
740.65	0.058
740.96	0.054
741.27	0.046
741.59	0.046
741.90	0.060
742.21	0.053
742.53	0.048
742.84	0.046
743.15	0.050
743.47	0.050
743.78	0.053
744.09	0.057
744.41	0.056
744.72	0.058
745.03	0.056
745.34	0.056
745.66	0.055
745.97	0.058
746.28	0.061
746.59	0.056
746.91	0.049
747.22	0.062
747.53	0.059
747.84	0.056
748.16	0.056
748.47	0.059
748.78	0.066
749.09	0.070
749.40	0.055
749.72	0.050
750.03	0.050
750.34	0.055
750.65	0.054
750.96	0.051
751.28	0.050
751.59	0.066
751.90	0.059
752.21	0.055
752.52	0.055
752.83	0.063
753.14	0.055
753.45	0.058
753.77	0.054
754.08	0.059
754.39	0.064
754.70	0.048
755.01	0.059
755.32	0.045
755.63	0.064
755.94	0.051
756.25	0.054
756.56	0.055
756.87	0.052
757.18	0.047
757.49	0.045
757.80	0.054
758.12	0.045
758.43	0.053
758.74	0.053
759.05	0.052
759.36	0.045
759.67	0.048
759.98	0.048
760.29	0.053
760.60	0.062
760.90	0.066
761.21	0.055
761.52	0.044
761.83	0.047
762.14	0.050
762.45	0.058
762.76	0.054
763.07	0.053
763.38	0.051
763.69	0.058
764.00	0.047
764.31	0.055
764.62	0.058
764.93	0.051
765.23	0.049
765.54	0.054
765.85	0.050
766.16	0.058
766.47	0.045
766.78	0.057
767.09	0.053
767.40	0.050
767.70	0.051
768.01	0.059
768.32	0.049
768.63	0.047
768.94	0.052
769.24	0.062
769.55	0.055
769.86	0.053
770.17	0.051
770.48	0.048
770.78	0.066
771.09	0.052
771.40	0.057
771.71	0.053
772.01	0.050
772.32	0.044
772.63	0.050
772.94	0.055
773.24	0.049
773.55	0.049
773.86	0.050
774.17	0.050
774.47	0.056
774.78	0.047
775.09	0.050
775.39	0.064
775.70	0.058
776.01	0.046
776.31	0.065
776.62	0.051
776.93	0.057
777.23	0.051
777.54	0.057
777.85	0.052
778.15	0.051
778.46	0.046
778.77	0.045
779.07	0.044
779.38	0.042
779.68	0.057
779.99	0.053
780.30	0.054
780.60	0.058
780.91	0.051
781.21	0.049
781.52	0.057
781.82	0.045
782.13	0.053
782.43	0.044
782.74	0.044
783.05	0.052
783.35	0.064
783.66	0.049
783.96	0.055
784.27	0.057
784.57	0.056
784.88	0.055
785.18	0.050
785.49	0.046
785.79	0.050
786.10	0.043
786.40	0.052
786.70	0.037
787.01	0.048
787.31	0.045
787.62	0.057
787.92	0.053
788.23	0.057
788.53	0.051
788.84	0.048
789.14	0.052
789.44	0.051
789.75	0.062
790.05	0.062
790.36	0.039
790.66	0.056
790.96	0.051
791.27	0.050
791.57	0.054
791.87	0.048
792.18	0.062
792.48	0.046
792.78	0.071
793.09	0.052
793.39	0.059
793.69	0.048
794.00	0.047
794.30	0.056
794.60	0.051
794.91	0.052
795.21	0.051
795.51	0.032
795.81	0.041
796.12	0.053
796.42	0.058
796.72	0.044
797.02	0.040
797.33	0.053
797.63	0.049
797.93	0.061
798.23	0.046
798.54	0.051
798.84	0.046
799.14	0.057
799.44	0.047
799.74	0.039
800.05	0.051
800.35	0.053
800.65	0.050
800.95	0.050
801.25	0.048
801.55	0.044
801.86	0.053
802.16	0.053
802.46	0.062
802.76	0.045
803.06	0.036
803.36	0.056
803.66	0.041
803.96	0.050
804.26	0.056
804.57	0.045
804.87	0.052
805.17	0.047
805.47	0.036
805.77	0.053
806.07	0.043
806.37	0.049
806.67	0.055
806.97	0.042
807.27	0.063
807.57	0.045
807.87	0.060
808.17	0.060
808.47	0.050
808.77	0.048
809.07	0.048
809.37	0.049
809.67	0.060
809.97	0.052
810.27	0.035
810.57	0.052
810.87	0.055
811.17	0.049
811.47	0.067
811.77	0.036
812.07	0.063
812.37	0.035
812.67	0.050
812.97	0.058
813.26	0.058
813.56	0.042
813.86	0.053
814.16	0.039
814.46	0.055
814.76	0.051
815.06	0.043
815.36	0.048
815.66	0.049
815.95	0.056
816.25	0.043
816.55	0.031
816.85	0.055
817.15	0.040
817.45	0.043
817.74	0.044
818.04	0.055
818.34	0.046
818.64	0.052
818.94	0.048
819.23	0.045
819.53	0.046
819.83	0.039
820.13	0.050
820.42	0.050
820.72	0.041
821.02	0.048
821.32	0.050
821.61	0.047
821.91	0.036
822.21	0.054
822.50	0.044
822.80	0.056
823.10	0.053
823.40	0.050
823.69	0.049
823.99	0.052
824.29	0.053
824.58	0.041
824.88	0.065
825.18	0.041
825.47	0.051
825.77	0.052
826.06	0.043
826.36	0.040
826.66	0.051
826.95	0.047
827.25	0.058
827.55	0.045
827.84	0.041
828.14	0.047
828.43	0.051
828.73	0.061
829.02	0.058
829.32	0.062
829.62	0.046
829.91	0.061
830.21	0.049
830.50	0.056
830.80	0.050
831.09	0.057
831.39	0.060
831.68	0.048
831.98	0.055
832.27	0.042
832.57	0.053
832.86	0.055
833.16	0.043
833.45	0.070
833.75	0.039
834.04	0.047
834.34	0.055
834.63	0.037
834.93	0.058
835.22	0.056
835.51	0.020
835.81	0.044
836.10	0.063
836.40	0.021
836.69	0.031
836.98	0.035
837.28	0.047
837.57	0.040
837.87	0.051
838.16	0.040
838.45	0.057
838.75	0.052
839.04	0.048
839.33	0.051
839.63	0.050
839.92	0.041
840.21	0.049
840.51	0.054
840.80	0.043
841.09	0.048
841.39	0.052
841.68	0.045
841.97	0.043
842.26	0.026
842.56	0.030
842.85	0.037
843.14	0.053
843.43	0.053
843.73	0.036
844.02	0.055
844.31	0.044
844.60	0.050
844.90	0.059
845.19	0.049
845.48	0.073
845.77	0.041
846.06	0.036
846.36	0.055
846.65	0.039
846.94	0.053
847.23	0.053
847.52	0.046
847.81	0.043
848.11	0.042
848.40	0.045
848.69	0.063
848.98	0.055
849.27	0.028
849.56	0.044
849.85	0.068
850.14	0.046
850.44	0.062
850.73	0.051
851.02	0.044
851.31	0.046
851.60	0.034
851.89	0.042
852.18	0.038
852.47	0.060
852.76	0.051
853.05	0.044
853.34	0.040
853.63	0.038
853.92	0.055
854.21	0.047
854.50	0.053
854.79	0.040
855.08	0.043
855.37	0.051
855.66	0.036
855.95	0.050
856.24	0.039
856.53	0.044
856.82	0.041
857.11	0.064
857.40	0.055
857.69	0.053
857.98	0.052
858.27	0.052
858.56	0.054
858.84	0.029
859.13	0.034
859.42	0.066
859.71	0.062
860.00	0.052
860.29	0.034
860.58	0.047
860.87	0.049
861.15	0.050
861.44	0.042
861.73	0.042
862.02	0.046
862.31	0.045
862.60	0.048
862.88	0.050
863.17	0.050
863.46	0.047
863.75	0.053
864.04	0.035
864.32	0.059
864.61	0.074
864.90	0.041
865.19	0.074
865.47	0.057
865.76	0.075
866.05	0.043
866.34	0.054
866.62	0.063
866.91	0.040
867.20	0.043
867.49	0.036
867.77	0.047
868.06	0.072
868.35	0.049
868.63	0.037
868.92	0.035
869.21	0.028
869.49	0.069
869.78	0.058
870.07	0.083
870.35	0.068
870.64	0.063
870.92	0.062
871.21	0.052
871.50	0.049
871.78	0.025
872.07	0.047
872.35	0.031
872.64	0.054
872.93	0.071
873.21	0.062
873.50	0.068
873.78	0.028
874.07	0.031
874.35	0.055
874.64	0.064
874.93	0.065
875.21	0.046
875.50	0.036
875.78	0.047
876.07	0.062
876.35	0.054
876.64	0.085
>>>>>End Spectral Data<<<<<
